N,lnPi(N),U(N)
0,0.0,0.0
1,-6.216678407071989,-0.09061106901809297
2,-11.589843220972071,-16.999609253127463
3,-15.21886692063332,-54.6236867595158
4,-16.93352692320872,-105.82292677416518
5,-19.933985841360567,-137.3734412066068
6,-23.152746050288034,-166.2932699644187
7,-26.11470492031927,-199.17436730591223
8,-28.830629885863505,-233.9227544460455
9,-31.39281451421647,-269.59910122566464
10,-33.80963494783118,-306.4510940185843
11,-36.21788581081282,-342.55293612087416
12,-38.53171681158647,-379.61833659725505
13,-40.73195900191012,-416.54645583713375
14,-42.86865590083802,-454.0063005130227
15,-44.95041446571355,-491.8577606309204
16,-46.999866523646645,-531.129025250663
17,-48.99964543848682,-568.4698022791314
18,-50.99004334114918,-606.2653282808711
19,-52.96102300537124,-644.8242236780484
20,-54.86461400720844,-682.9335627865242
21,-56.72469190075472,-721.7074814656872
22,-58.549085157564924,-759.8716070203071
23,-60.35126232558151,-799.3775313167977
24,-62.19371920427932,-838.1748396773777
25,-63.98253976463912,-876.6152657190888
26,-65.71395656843148,-916.428267748681
27,-67.43144461070797,-955.2651541527503
28,-69.12769103771004,-993.631721365025
29,-70.81627623646266,-1033.1884127950086
30,-72.4017640529543,-1073.8609007360774
31,-73.94671687747173,-1113.4870068431928
32,-75.44038795235848,-1154.1017078250043
33,-76.90186754758798,-1194.3716344385116
34,-78.31986321467879,-1234.8471818054836
35,-79.66539414350672,-1275.106134276432
36,-80.98041210072562,-1317.0062483549382
37,-82.29547368959267,-1359.4175477372123
38,-83.56435655391347,-1401.5069839376108
39,-84.80106152343558,-1442.8371939787605
40,-85.99605456893578,-1485.115806782095
41,-87.16801315069323,-1528.6016663757746
42,-88.39852653618426,-1570.9800290206283
43,-89.59946821310055,-1613.280139885379
44,-90.77735832214101,-1654.9703945600706
45,-91.93855631510132,-1698.6232783058235
46,-93.09953611187825,-1740.8533856901083
47,-94.22048383658696,-1782.8661030133653
48,-95.31275981609994,-1825.755938790165
49,-96.40589899808143,-1865.4773781546423
50,-97.44410045771946,-1907.2310267930802
51,-98.41763684881941,-1949.7646284683167
52,-99.45024594694283,-1993.2810089204163
53,-100.47423717059533,-2036.0896919175798
54,-101.46280505037937,-2078.0357549941486
55,-102.45763121101933,-2120.4283756282725
56,-103.44217892150438,-2162.795688752025
57,-104.4469165551879,-2204.240079463178
58,-105.45445297915366,-2245.4753718578495
59,-106.42577511155682,-2288.9057394700053
60,-107.35687466805386,-2332.3149600679
61,-108.24823680414431,-2374.757576980955
62,-109.13912342549634,-2416.045193941917
63,-110.05002062870766,-2456.7395978551876
64,-110.94472690548261,-2499.4081379666773
65,-111.82553740986033,-2542.2853610912325
66,-112.66635938769134,-2584.2925666760966
67,-113.50319308419057,-2626.27842254034
68,-114.3354642592482,-2668.4980054119073
69,-115.10690378223588,-2712.1550783210882
70,-115.88319640100838,-2755.861306046528
71,-116.56385810178554,-2799.3814264625044
72,-117.26970861909467,-2842.3355703719453
73,-117.95554387467794,-2884.3404674887774
74,-118.61707081232534,-2925.233666262735
75,-119.21357377869366,-2970.235314554729
76,-119.80051040768245,-3013.756560576699
77,-120.34936089009129,-3058.2083789089033
78,-120.85982392675555,-3104.5776031277815
79,-121.36320704742542,-3150.2791621139722
80,-121.82661156337785,-3193.3252009239454
81,-122.23234172094418,-3237.121176840011
82,-122.60334288581436,-3283.2655284373363
83,-122.92697088863186,-3331.974185868895
84,-123.17547147938362,-3378.304104903374
85,-123.49537229756737,-3421.7886863503886
86,-123.77744924621541,-3471.1976032821353
87,-124.02565843749966,-3519.661937348534
88,-124.28863586810438,-3568.9962613553166
89,-124.6017762554453,-3613.326560184565
90,-124.87731751680829,-3659.4797980210483
91,-125.14851028496298,-3708.1947466428583
92,-125.4013602113421,-3753.7233035603654
93,-125.60701318727178,-3801.2746500454996
94,-125.8168215219465,-3849.1264972019117
95,-126.01473776083871,-3896.3537415411797
96,-126.19945912793713,-3942.429215196647
97,-126.4138259373851,-3988.8468109285827
98,-126.67365081411164,-4038.245036792201
99,-126.87557818712942,-4082.507668516927
100,-127.07016586355526,-4126.479895882278
101,-127.32666283605077,-4171.766933164659
102,-127.56191153090114,-4218.343444320707
103,-127.79383552371942,-4262.477800301414
104,-127.99675216954702,-4306.939780939406
105,-128.27660191779015,-4352.892723028976
106,-128.50054420932537,-4400.682785994398
107,-128.734204846132,-4449.12158386078
108,-128.97606124837571,-4492.092195978009
109,-129.19267058961069,-4535.662630831643
110,-129.4385622427228,-4582.919577652186
111,-129.6868210198208,-4630.210875643121
112,-129.90059914118302,-4677.651308525276
113,-130.11057726173087,-4723.430902619264
114,-130.35350321214148,-4771.474309197861
115,-130.5735274902423,-4818.0156574136845
116,-130.85764765288218,-4862.776525849609
117,-131.10241593205754,-4909.063181257787
118,-131.36534117468236,-4955.4900248310605
119,-131.60980301278434,-5003.272916338261
120,-131.82844420385135,-5051.088369188289
121,-132.09292444947047,-5096.393462400053
122,-132.38655665461164,-5143.228084085568
123,-132.64292867482612,-5189.555324967899
124,-132.8857453692541,-5235.1203860399355
125,-133.1337559816903,-5279.902745135816
126,-133.3594458871923,-5325.032805276237
127,-133.58111312170814,-5370.23990485051
128,-133.77510100750868,-5418.159378193643
129,-133.98948405711062,-5464.098938725374
130,-134.17692715052885,-5508.434268516761
131,-134.42287371274577,-5555.327668393851
132,-134.66687621995754,-5600.1970941308655
133,-134.8811969348448,-5643.691050143326
134,-135.07720518622088,-5684.852789986794
135,-135.31619162209162,-5728.32086830234
136,-135.5706348081279,-5773.746194273796
137,-135.80527565676843,-5816.2907299860335
138,-136.0210525215526,-5852.556683684196
139,-136.1781136663736,-5897.8891306237965
140,-136.31720830765985,-5941.630207609318
141,-136.40503426488988,-5989.148188420346
142,-136.49151773129728,-6031.877198167113
143,-136.5540966795423,-6076.548923011408
144,-136.57470465017244,-6117.975817787407
145,-136.60007549395283,-6159.4567598106805
146,-136.58873403396865,-6203.770718987988
147,-136.52650114988023,-6248.580411473768
148,-136.46856701044194,-6291.632480640487
149,-136.3818308393761,-6337.097161855278
150,-136.23459156553307,-6382.2512387368815
151,-136.0989455754385,-6426.88971432016
152,-135.9305542076018,-6470.980223331165
153,-135.73487610211308,-6517.168964732501
154,-135.51113275639656,-6565.060190522292
155,-135.2751143684867,-6610.982881408803
156,-135.04297574213265,-6657.825994139145
157,-134.79794051910912,-6704.478060533447
158,-134.53759366100593,-6751.55650545743
159,-134.2409675009632,-6800.638738377337
160,-133.93012325850313,-6848.283376312831
161,-133.6274245511632,-6893.453477900737
162,-133.27161306746942,-6943.801087118721
163,-132.9311157849453,-6989.187923332704
164,-132.57235862452424,-7037.075807175192
165,-132.19665736357126,-7086.2924584981465
166,-131.82487343395758,-7135.901223528601
167,-131.4593690963255,-7181.312089610279
168,-131.08652279908165,-7229.396947829921
169,-130.7031433704895,-7278.44423264607
170,-130.30310074944623,-7328.164746739422
171,-129.87729995632708,-7376.581147037122
172,-129.46338410482508,-7424.699750589421
173,-129.02548989907288,-7473.017732929506
174,-128.5767320914472,-7519.696422565615
175,-128.13577920422563,-7566.7991507715715
176,-127.66369364382535,-7613.564067961621
177,-127.20682841555711,-7660.729103242797
178,-126.7201180137923,-7709.265366258671
179,-126.21949593406514,-7757.600364025877
180,-125.70084665931415,-7807.177901328839
181,-125.21156992497862,-7854.063241936283
182,-124.66184678042222,-7902.546016334185
183,-124.14850493179546,-7948.762564720688
184,-123.6167662395299,-7996.679173955795
185,-123.07006354291046,-8045.601792808557
186,-122.50553052819004,-8091.819334359965
187,-121.89193838864378,-8139.319403424486
188,-121.27096722395888,-8187.677264262816
189,-120.67289374700032,-8237.268799153877
190,-120.02031517395038,-8284.23865892377
191,-119.38075729353618,-8332.235805817143
192,-118.72158903802261,-8379.682461781102
193,-118.00951922066133,-8426.133994065014
194,-117.29392125052061,-8473.580787088034
195,-116.59894770724202,-8522.926865666179
196,-115.84394132119762,-8572.456722776611
197,-115.08920096630933,-8620.769845737303
198,-114.31200403523601,-8670.53668306336
199,-113.49968050695959,-8716.508609545877
200,-112.66740265718396,-8766.12527998993
201,-111.85654687624357,-8816.66099851023
202,-111.01433284790238,-8865.076150448289
203,-110.16470618712371,-8913.320234583714
204,-109.30135357295386,-8964.257468945343
205,-108.43200192689623,-9010.93033783267
206,-107.54481654459686,-9058.1017117697
207,-106.6611416100845,-9105.492136174606
208,-105.75655519562554,-9154.2174503133
209,-104.80391951551371,-9203.466439889964
210,-103.81631046831303,-9253.534102533135
211,-102.8208200009867,-9301.735133332915
212,-101.81442628142702,-9348.277656517843
213,-100.80583547089783,-9396.142993111376
214,-99.75270069836517,-9443.822808444058
215,-98.68766777058076,-9494.297777673428
216,-97.56839182354697,-9545.552487974466
217,-96.43017563267912,-9599.309028087508
218,-95.29106138438371,-9650.427550721004
219,-94.14554846904241,-9703.045594403073
220,-92.99593157917764,-9756.583407761085
221,-91.83671014359686,-9807.758148714876
222,-90.63348974769234,-9862.377000862913
223,-89.42731455786033,-9914.296254603805
224,-88.2617129837195,-9968.07499409835
225,-87.08935106678072,-10022.252542970446
226,-85.92908956100426,-10075.246791057984
227,-84.71084588629887,-10133.68098954348
228,-83.54391694996019,-10189.093161084942
229,-82.39525068989266,-10245.61111641239
230,-81.2553391666556,-10301.852405827787
231,-80.12519899335071,-10357.497419285386
232,-79.02189555419031,-10413.175665345652
233,-77.92505912383346,-10471.939503458369
234,-76.9048142296154,-10524.909794167395
235,-75.87707847239011,-10580.667181104813
236,-74.86652072116773,-10637.34677357295
237,-73.91305179096756,-10693.945702324305
238,-72.93987938263767,-10750.396079806716
239,-72.02982558816937,-10807.653471417338
240,-71.16621765607287,-10864.408473753332
241,-70.30763621043302,-10920.174938037597
242,-69.50730835779025,-10975.944266715418
243,-68.77926846456596,-11027.945235484194
244,-68.05569601592146,-11082.852180478118
245,-67.39841306630301,-11133.729987435225
246,-66.7506371396779,-11189.684313955791
247,-66.15776061235222,-11244.635515148202
248,-65.62348884446189,-11299.946951043772
249,-65.14073657039576,-11355.754582805132
250,-64.72790682257668,-11406.986094389407
251,-64.27549146369563,-11469.483033867537
252,-63.897152236374424,-11518.83535499488
253,-63.58640474817743,-11570.47826166463
254,-63.35401359535252,-11622.235133905882
255,-63.15705196051767,-11677.648811116613
256,-62.99532248418359,-11731.971347995654
257,-62.94595543492111,-11784.040977847222
258,-62.89632921417074,-11837.88246995754
259,-62.91650444206416,-11891.604555589236
260,-62.97842042493004,-11945.895659738717
261,-63.072535589454475,-11995.624283829682
262,-63.27812725554339,-12033.288078060476
263,-63.52301948461151,-12085.132915118073
264,-63.82406318260906,-12139.236308094612
265,-64.2080342605071,-12192.827329921243
266,-64.62804261720875,-12250.031497668317
267,-65.16912019072126,-12300.45810937163
268,-65.697347965143,-12353.56134997315
269,-66.27331204352167,-12405.235219675502
270,-66.91730297664523,-12456.152719340276
271,-67.6807563583108,-12504.900997038509
272,-68.38686205703229,-12562.995473662098
273,-69.17576589600083,-12611.367510783886
274,-70.038010569105,-12659.5033479103
275,-71.02686642241959,-12706.175762945908
276,-72.02009280886043,-12757.269536943872
277,-73.1004669295819,-12815.92204107989
278,-74.27766367263348,-12866.455627905423
279,-75.48443110262848,-12913.329333822809
280,-76.83035478694012,-12963.576488856235
281,-78.27559364397453,-13011.554917825437
282,-79.7962969516349,-13071.440954901564
283,-81.2902725078507,-13115.386559692646
284,-82.87086276028866,-13162.589560948898
285,-84.61218026247427,-13211.222818667704
286,-86.29985475328222,-13262.570359898533
287,-88.03260640457064,-13316.919960440147
288,-90.0388289203175,-13368.172707304137
289,-92.05565851673228,-13418.460949916
290,-94.13080773693018,-13469.260721887047
291,-96.2693195504459,-13518.24960937764
292,-98.52871403524625,-13560.822935896967
293,-100.78693525491028,-13612.462460673867
294,-103.29105140592021,-13661.1433320368
295,-105.68880871057345,-13707.53710568351
296,-108.29727362596046,-13757.491342818086
297,-110.9991619531418,-13801.122748466863
298,-113.70264931200522,-13856.879646491872
299,-116.5022796277181,-13907.901535901256
300,-119.38074624165965,-13963.004216353584
301,-122.31995019767801,-14011.665938201446
302,-125.44502546468762,-14055.713230214556
303,-128.6394499024302,-14104.437270158198
304,-131.93543618456874,-14153.292073999197
305,-135.34483181568186,-14199.446858123196
306,-138.87895840961593,-14245.16060066663
307,-142.60730217250804,-14294.638831731789
308,-146.03731507502846,-14342.8101726657
309,-149.93311005621322,-14396.638624215018
310,-153.78992254615798,-14442.74720585576
311,-157.85147417052093,-14489.358383450024
312,-161.89304027409878,-14546.335995432077
313,-166.15929669137424,-14596.736996061369
314,-170.5101963393523,-14636.487718816918
315,-175.16391469310338,-14692.5971294984
