N,lnPi(N),U(N)
0,-1472.563485586164,0.0
1,-1461.940886148086,-14.904463026751534
2,-1452.1279843969298,-29.771103801860637
3,-1442.8848757371236,-44.645959055337194
4,-1433.7412747177616,-59.52263326824188
5,-1424.7966674767702,-74.38943587444044
6,-1416.1275349663542,-89.23832161966106
7,-1407.557626991778,-104.06955239480699
8,-1399.1283357024192,-118.90224418474794
9,-1390.8338220622188,-133.7231429698595
10,-1382.6718685034648,-148.5937219843558
11,-1374.6302399613164,-163.30653787655106
12,-1366.6561007713326,-178.04826370453424
13,-1358.7897351340089,-192.80850641885556
14,-1350.9949988328308,-207.61015837423
15,-1343.2967362113732,-222.34108286810473
16,-1335.6646019112707,-237.06421594836596
17,-1328.1365074557646,-251.800499855559
18,-1320.6387446545998,-266.4615936522501
19,-1313.2190447741311,-281.12282079942486
20,-1305.9021137756115,-295.76540034998794
21,-1298.6297764083452,-310.4378136763217
22,-1291.3949297535498,-325.08950524150464
23,-1284.2165430580053,-339.77856227714796
24,-1277.0817201962043,-354.364514460288
25,-1269.9579413561473,-368.9568876236709
26,-1262.9241882574395,-383.54139048284986
27,-1255.9408877259725,-398.07105239743663
28,-1249.008341827958,-412.62756898310755
29,-1242.0950777450614,-427.18294247128205
30,-1235.2681952011883,-441.8037000423428
31,-1228.4734390686165,-456.2342176145281
32,-1221.7291966332032,-470.64066015886755
33,-1215.020079841215,-485.0670965597834
34,-1208.3406538908027,-499.6004198940261
35,-1201.6846296421543,-514.022820119748
36,-1195.0676944413146,-528.5178059543499
37,-1188.5216927465256,-542.9289457933249
38,-1182.017849828242,-557.2618358320353
39,-1175.5399877318252,-571.7236288939688
40,-1169.1047919957052,-586.1819375060678
41,-1162.6899889488125,-600.5705605807947
42,-1156.3389076028216,-614.9206018869771
43,-1149.9837801852975,-629.0663067249313
44,-1143.6771110440945,-643.1747643555352
45,-1137.3993076093916,-657.488081432729
46,-1131.1537122271784,-671.8022538471041
47,-1124.9505744404087,-686.0329902124399
48,-1118.787912585109,-700.1795311988889
49,-1112.6492928683979,-714.4187421526567
50,-1106.555922326846,-728.5852587536485
51,-1100.5098569029865,-742.777852349817
52,-1094.467181338152,-756.8882428887905
53,-1088.4640746846592,-770.9028531165573
54,-1082.5010092040816,-785.0810755867155
55,-1076.5786308731945,-799.1409821399869
56,-1070.6587725191478,-813.1653250893984
57,-1064.7859039483685,-827.2522781201554
58,-1058.9400158709313,-841.3807180842335
59,-1053.0942723312928,-855.4098230410507
60,-1047.3220562219517,-869.4503091608408
61,-1041.5760664815684,-883.4460956336877
62,-1035.8656080821763,-897.6008314838641
63,-1030.1697436381503,-911.5002452685532
64,-1024.4816816304356,-925.5387506714466
65,-1018.8412274988076,-939.3457350776877
66,-1013.2115924563996,-953.1798277933132
67,-1007.5928319428604,-967.1609465763474
68,-1002.0190827525697,-981.0300252561279
69,-996.4730966910007,-994.7095074810002
70,-990.9471695472791,-1008.7063751617745
71,-985.4442928988198,-1022.6204360543015
72,-979.9613867362938,-1036.3614750009474
73,-974.5339488557466,-1050.0605743206165
74,-969.1104437299108,-1063.853654777976
75,-963.7050373631163,-1077.4441456199165
76,-958.3402629284935,-1091.402537199632
77,-952.9824638341098,-1105.2231671460802
78,-947.6877015531369,-1118.8849030246724
79,-942.3859924520201,-1132.64638693818
80,-937.1167818657349,-1146.1442107862824
81,-931.8684087411922,-1159.7534749042336
82,-926.619527139006,-1173.414786593994
83,-921.4187224983306,-1187.0173314996503
84,-916.2549698854091,-1200.509924430781
85,-911.1030502099778,-1214.238588426183
86,-905.9658515704865,-1227.8250645915853
87,-900.8583101458279,-1241.6263481487358
88,-895.7752013395726,-1255.4016287238396
89,-890.7157313032377,-1269.1182864694968
90,-885.6742036502285,-1282.5616713320683
91,-880.661299465781,-1296.2529037262711
92,-875.6540310734827,-1309.9652484802864
93,-870.6927908120048,-1323.5525029144353
94,-865.7373880849525,-1337.0556226950262
95,-860.7920878692846,-1350.6289306009207
96,-855.8842116184331,-1364.3064157853898
97,-850.9773617502655,-1377.8837445480158
98,-846.0942988772734,-1391.396257651941
99,-841.2471346692746,-1404.915301197799
100,-836.427661668238,-1418.4351804643586
101,-831.6145047142367,-1431.8977940673506
102,-826.8276709687156,-1445.4974375079473
103,-822.0618441885983,-1458.9762721198979
104,-817.3148294285837,-1472.5374698751957
105,-812.5978273626257,-1486.0771565700852
106,-807.8754440325516,-1499.713539296898
107,-803.1854288143111,-1513.1962756619312
108,-798.5250419821242,-1526.8389049559232
109,-793.8775491265009,-1540.4022856559848
110,-789.2396451028698,-1553.7772479462467
111,-784.6242875246438,-1567.193484720397
112,-780.0507214212925,-1580.5988248449328
113,-775.4776359907825,-1594.0627739230752
114,-770.9389609204675,-1607.6337053886707
115,-766.4082235630977,-1621.136536641742
116,-761.8888008133893,-1634.711631400914
117,-757.399124764889,-1648.060651334438
118,-752.9247719752085,-1661.2942363857646
119,-748.4765882366901,-1674.8580675372602
120,-744.0327282013303,-1688.3196624212821
121,-739.6233930378401,-1701.8414179815393
122,-735.2337693128516,-1715.3423818926751
123,-730.8546125246352,-1728.8434331025626
124,-726.4924623419201,-1742.4337403198433
125,-722.1535735780373,-1755.9841722452982
126,-717.8311912207752,-1769.441403833745
127,-713.5332073877138,-1782.9957796895046
128,-709.2441824990418,-1796.335038120075
129,-704.9600770895553,-1809.8749748339555
130,-700.7092328629857,-1823.3180884495123
131,-696.4760793080883,-1836.888961508225
132,-692.2556498916948,-1850.3803500735446
133,-688.0641675030362,-1863.8014893912243
134,-683.8799757793005,-1877.2606125025827
135,-679.7125706480671,-1890.7520082129165
136,-675.5609217786149,-1904.2394971533242
137,-671.4274606461021,-1917.7499771722373
138,-667.3156587761014,-1931.3584265634893
139,-663.2231303791219,-1944.7564514299738
140,-659.1465124105771,-1958.2109438415855
141,-655.0783559962679,-1971.7681856829504
142,-651.0278342001944,-1985.2022760164043
143,-646.9975748724108,-1998.8500745705994
144,-642.9787804396049,-2012.2897386054922
145,-638.9804788405938,-2025.765762559605
146,-635.0018764993091,-2039.0899250938976
147,-631.0374164068136,-2052.4278966114853
148,-627.0904676607273,-2065.7896858068925
149,-623.1497982494204,-2079.4571014464645
150,-619.2278697875049,-2092.9652983240344
151,-615.3219400407743,-2106.3481206529023
152,-611.4424837850779,-2119.7756362292566
153,-607.5731603472434,-2133.2500356199744
154,-603.7211326108408,-2147.046337165214
155,-599.8849845958573,-2160.5094553045037
156,-596.0732886411728,-2174.0012197130914
157,-592.2674279056479,-2187.6556148007985
158,-588.4774679255987,-2201.2695758597824
159,-584.7099455098576,-2214.7155959493557
160,-580.9473356321259,-2228.3508713837355
161,-577.2050091175266,-2242.019896643815
162,-573.4812268713698,-2255.6508846426586
163,-569.7708213900147,-2269.185130694522
164,-566.0717938221754,-2282.5297767553852
165,-562.3919976056845,-2296.121507605
166,-558.7267929342034,-2309.6154800629847
167,-555.0765844438833,-2323.2348686680516
168,-551.44137405739,-2336.694665633449
169,-547.8206897686756,-2350.411468236706
170,-544.2198658575078,-2364.4577658029934
171,-540.6266213414062,-2378.3133596188204
172,-537.0571361948565,-2391.847817390308
173,-533.4952798058437,-2405.48668949867
174,-529.9584323619279,-2419.1575805279085
175,-526.4231023876575,-2432.760123528938
176,-522.9089530071119,-2446.6408304577435
177,-519.4085432399168,-2460.381603152742
178,-515.9188513388037,-2474.135686989705
179,-512.4453915412017,-2487.8048220162864
180,-508.98384790399354,-2501.4559661823614
181,-505.5430875779204,-2515.3279842222596
182,-502.12538852188385,-2528.9119995816413
183,-498.71341791774756,-2542.7281649922033
184,-495.3140395774164,-2556.6446937127857
185,-491.9332791461215,-2570.527052815175
186,-488.5519496521085,-2584.5563613827644
187,-485.1953392332885,-2598.1121640155784
188,-481.85147693112623,-2611.97095630551
189,-478.51873759719734,-2625.6630990368662
190,-475.1989955830131,-2639.5363145126207
191,-471.89569911428686,-2653.3646083118165
192,-468.60843916982134,-2667.1227671800875
193,-465.33763132629605,-2680.9228203224884
194,-462.08503922521646,-2694.653602195635
195,-458.83241955580723,-2708.414391661442
196,-455.60219271806244,-2722.0225228425693
197,-452.38381854804453,-2735.761693592227
198,-449.1777171872481,-2749.639134079722
199,-445.9812908615848,-2763.64878952773
200,-442.80472304966,-2777.6357355597484
201,-439.643281462732,-2791.5398214644797
202,-436.4956601799775,-2805.740805620628
203,-433.3577925562316,-2819.563958849253
204,-430.23478257200696,-2834.13859290452
205,-427.12122061059114,-2848.753471484264
206,-424.01725454408216,-2862.4980506681795
207,-420.93112908246263,-2876.553373654079
208,-417.85527918513964,-2890.5995364451514
209,-414.79608021831865,-2904.918543611381
210,-411.7477354286619,-2919.213979355702
211,-408.7121895533185,-2933.135175472376
212,-405.6922928940285,-2947.1573005144414
213,-402.6793771224214,-2961.1336819685744
214,-399.68938346234796,-2975.3462872272594
215,-396.70415955438676,-2989.774466908943
216,-393.73366070014737,-3003.6756266862285
217,-390.77314016978704,-3017.9381797819788
218,-387.82633104580697,-3031.9495400184355
219,-384.90604225902854,-3046.084088208529
220,-381.98946550459647,-3060.3558527118053
221,-379.081853669404,-3074.6213674067485
222,-376.1940993736251,-3088.631320480295
223,-373.3133797404976,-3102.7410730377424
224,-370.45125518310607,-3117.003911339225
225,-367.5947911161234,-3131.2389828825576
226,-364.75156923590777,-3145.34515312987
227,-361.926690045729,-3159.318870797567
228,-359.1137599809195,-3173.778326378193
229,-356.31342273973684,-3188.124931774501
230,-353.52819454051206,-3202.5512267731942
231,-350.73923069406743,-3217.3163680645303
232,-347.96784907280477,-3231.9133052049847
233,-345.210632382557,-3246.2482182241847
234,-342.4663525696961,-3260.118241782967
235,-339.74035461053614,-3274.496907875655
236,-337.0264910817262,-3288.9104097790205
237,-334.32012010712225,-3303.880515452212
238,-331.62559628668515,-3318.5403089700785
239,-328.9472979896694,-3333.247891900985
240,-326.2775297505023,-3347.9120393897933
241,-323.61725663971725,-3362.701364486074
242,-320.97220163428284,-3377.300907283229
243,-318.3285878216905,-3392.080108705895
244,-315.7085207753253,-3406.332956581887
245,-313.0966028477465,-3421.162143750982
246,-310.49290689497826,-3436.2008232098083
247,-307.8979104443243,-3451.0096400070024
248,-305.3178196205791,-3465.9207474994646
249,-302.7456056201084,-3480.558174249251
250,-300.1897695369826,-3495.4569955273437
251,-297.6437366433607,-3510.369324482648
252,-295.10956513653906,-3524.162798327247
253,-292.57977994071604,-3538.130873042257
254,-290.0751713993505,-3552.640339556145
255,-287.5684242390203,-3567.0534991642576
256,-285.0807010869158,-3581.657480158814
257,-282.6051775118106,-3596.0863880562315
258,-280.13760440167954,-3611.2048348329868
259,-277.689041905318,-3625.870009052553
260,-275.2458435022425,-3640.6969820342406
261,-272.81431641556725,-3655.444311184936
262,-270.39018601387585,-3670.4396881974244
263,-267.98399061368974,-3685.296795702468
264,-265.59630452241373,-3700.1817302616246
265,-263.2153514018549,-3715.3294204047083
266,-260.8406456392291,-3730.473287965621
267,-258.4741378916295,-3745.565056657772
268,-256.11986284801293,-3760.781275301565
269,-253.78342017773556,-3775.8205247925675
270,-251.45576097694365,-3791.039891703517
271,-249.13414660419912,-3806.2559287629683
272,-246.81804017088857,-3821.2800917088607
273,-244.52149561811015,-3836.3297815212964
274,-242.23338156030204,-3851.469579806514
275,-239.9589853748415,-3866.580547864736
276,-237.69880854262632,-3881.527840547265
277,-235.44184003199516,-3896.628672364989
278,-233.19728014058714,-3910.504641143185
279,-230.96254362114732,-3925.006635639722
280,-228.742493741846,-3940.484480757339
281,-226.52680584986646,-3955.7557318082336
282,-224.32283493264035,-3970.8611955676874
283,-222.1329033406474,-3986.0564845936156
284,-219.95589920505026,-4001.347394214404
285,-217.78790086626154,-4016.4113419064015
286,-215.63153490804788,-4031.7295517434336
287,-213.48133642268735,-4047.255125100588
288,-211.34130307757513,-4062.5140741327596
289,-209.2146992559975,-4077.636665739817
290,-207.0930409046883,-4093.466499662705
291,-204.996831424963,-4108.893362406864
292,-202.896881802715,-4124.071979603887
293,-200.80772799345763,-4139.02611608343
294,-198.73213093917875,-4154.059081008732
295,-196.6687788385146,-4169.179564165723
296,-194.61228719616187,-4184.953838849699
297,-192.57158445544619,-4200.337627277708
298,-190.54331564759204,-4215.39931323989
299,-188.52085099656446,-4230.37091955916
300,-186.51291280617065,-4245.870377859765
301,-184.51518380843717,-4261.208739973111
302,-182.52717683197383,-4276.899716172382
303,-180.54908207889716,-4292.882165511488
304,-178.5802001526416,-4308.187061216602
305,-176.6209167925734,-4323.6242598034105
306,-174.67188921662373,-4339.072220235784
307,-172.74069351992793,-4354.897501722315
308,-170.81861129398735,-4370.150393381556
309,-168.89885371649038,-4385.779253943062
310,-166.99280193220338,-4401.026992014917
311,-165.09728050180237,-4416.26147541382
312,-163.20844580563048,-4431.821885034334
313,-161.33029852716945,-4447.31435706765
314,-159.4649741068375,-4462.8518638342875
315,-157.6085737238021,-4478.030987433195
316,-155.75703905906138,-4493.790897550359
317,-153.91961120284017,-4509.002957089587
318,-152.0909162639842,-4524.588915030569
319,-150.2775138474145,-4540.591764448671
320,-148.47150001478562,-4556.251269322156
321,-146.6798359493442,-4571.756369000794
322,-144.8912783310462,-4587.50001918481
323,-143.11914527257122,-4602.356982620389
324,-141.35157770110808,-4617.174620185697
325,-139.59930836204634,-4632.598053177348
326,-137.8542632367988,-4648.330328657565
327,-136.1250724320308,-4663.733169824043
328,-134.40098334876174,-4679.510849088684
329,-132.6884650071889,-4694.935438680496
330,-130.97938566693037,-4710.445828575241
331,-129.28597943275244,-4726.027756290881
332,-127.60874341788335,-4741.4295219606865
333,-125.94119193734409,-4757.202333999629
334,-124.28132862718243,-4772.948687101406
335,-122.62755631872787,-4789.016613145184
336,-120.98749028085248,-4804.662268048951
337,-119.36082856764537,-4820.306968134919
338,-117.7461357060848,-4835.949907036828
339,-116.14094555872393,-4851.5859217595535
340,-114.55017571425023,-4867.637246815418
341,-112.97346059532842,-4883.261441564855
342,-111.39800551925882,-4899.433054944516
343,-109.83257267031772,-4915.490734633982
344,-108.27369981408523,-4930.832356930687
345,-106.72315264735707,-4946.281465582496
346,-105.19252690993162,-4962.116587039511
347,-103.66852126958165,-4978.44097595271
348,-102.15969267784985,-4993.91249601087
349,-100.65635765974443,-5009.598493551809
350,-99.1645190236321,-5025.283758045462
351,-97.68478653939277,-5040.739378620463
352,-96.20406615640613,-5056.554757889968
353,-94.7438974960015,-5072.391377641471
354,-93.29131743780144,-5087.4164775599265
355,-91.84501660830173,-5103.07379894334
356,-90.41952453367261,-5118.439401647505
357,-89.00851170520727,-5134.040663678299
358,-87.60385854645241,-5150.485625706983
359,-86.20784765697894,-5166.164779434328
360,-84.82232105589318,-5182.2398286179905
361,-83.44140966609356,-5197.572452276416
362,-82.07529249998115,-5214.313738739051
363,-80.71212498206577,-5231.4925791321675
364,-79.36886953986445,-5247.112801782231
365,-78.02438769354862,-5262.924710574451
366,-76.68463993500254,-5278.896634741245
367,-75.36801990586386,-5294.614766480231
368,-74.05348651096219,-5310.339664026204
369,-72.75480707474034,-5325.927684349145
370,-71.46629863641519,-5341.595044796893
371,-70.19207773292382,-5357.405646621021
372,-68.92669234858394,-5373.4411298864425
373,-67.67018530148866,-5389.8670898061455
374,-66.42579511060566,-5406.093457385305
375,-65.19677762816818,-5422.090458283747
376,-63.97087698398363,-5438.042429752768
377,-62.75899358789829,-5453.644997733978
378,-61.557525695937414,-5469.325323066918
379,-60.36761742866892,-5484.233133441576
380,-59.1836756717058,-5498.650224930736
381,-58.0195869200455,-5515.04845534454
382,-56.8582186523864,-5530.756729212022
383,-55.70751322550299,-5546.525458899091
384,-54.56935037761477,-5561.682486039646
385,-53.44386584090566,-5578.075720434539
386,-52.33314060668508,-5593.9455682162425
387,-51.22887865777565,-5609.6116485611365
388,-50.136974717835386,-5626.8148129539195
389,-49.05392895054101,-5643.2860260980715
390,-47.9800897650251,-5659.270799335352
391,-46.92187493189371,-5674.4915482680135
392,-45.870054682220456,-5690.8499105108685
393,-44.834577789241024,-5706.96401120609
394,-43.80066054721087,-5722.736474031398
395,-42.77837076676414,-5738.792837506799
396,-41.77389314893148,-5754.036617114932
397,-40.78078660967739,-5769.626801552525
398,-39.798162388713166,-5785.683030639461
399,-38.825816183483624,-5801.1720300540555
400,-37.86296987863406,-5816.5006113823
401,-36.91505897560032,-5832.3681437676005
402,-35.970523930480425,-5847.702944349679
403,-35.05007050624212,-5863.5997033116
404,-34.14312360615972,-5878.665333680218
405,-33.25352477212127,-5893.550115863749
406,-32.37498093074791,-5909.151802208185
407,-31.499211266440483,-5925.298470581858
408,-30.635450823762625,-5940.970223818598
409,-29.780050710910785,-5956.912141400854
410,-28.945175351597385,-5972.252584723891
411,-28.120104573647353,-5990.923562581799
412,-27.297573638706893,-6009.7488224334575
413,-26.492842626083615,-6024.678310957561
414,-25.699051978013443,-6041.161594486127
415,-24.910663920786277,-6056.83475349551
416,-24.140155250699166,-6072.398380605588
417,-23.380239253945177,-6087.655233853317
418,-22.629371204106377,-6104.10704771374
419,-21.89444280731604,-6118.162925372359
420,-21.169286960636185,-6132.601266010878
421,-20.466281134976356,-6148.278612873749
422,-19.774477510414812,-6164.0215373024585
423,-19.08850887473463,-6180.477382147709
424,-18.412972122103696,-6196.03594070441
425,-17.755146551852107,-6211.96502268395
426,-17.11467886013483,-6227.664570305114
427,-16.48194391029014,-6242.9844639524845
428,-15.868181201825877,-6258.565637558651
429,-15.268903114106337,-6274.321138922998
430,-14.681074983683487,-6289.827435510394
431,-14.111358609874145,-6305.117897916084
432,-13.553741526446714,-6320.483801663335
433,-13.005279212012823,-6336.7977293506765
434,-12.455987949904369,-6354.220080477897
435,-11.92786486303757,-6370.204942408471
436,-11.414655060819172,-6385.236256955946
437,-10.915953526365769,-6401.131665630053
438,-10.430947904144745,-6415.984299898904
439,-9.951261523162515,-6431.942197871505
440,-9.49615923462406,-6446.492998650971
441,-9.058085110154565,-6462.258008421092
442,-8.629644241451473,-6477.354024225994
443,-8.217437892881975,-6493.322082952563
444,-7.823283269451479,-6508.678256936745
445,-7.436994730548888,-6523.88664472922
446,-7.0723616730036545,-6539.580905238085
447,-6.715079011584378,-6555.2629368111475
448,-6.373779943671109,-6571.2159686167015
449,-6.05017040294237,-6585.898687186737
450,-5.741764036242869,-6601.455779897714
451,-5.448656359042018,-6616.854951519789
452,-5.167679479276869,-6632.241728567599
453,-4.909860113965663,-6647.781309428111
454,-4.6625851445763535,-6663.005563010709
455,-4.425849286880832,-6678.482964025212
456,-4.206673362950226,-6693.285433113436
457,-4.0137192546977465,-6708.925072050847
458,-3.8357934349854466,-6723.789048661366
459,-3.662458665123352,-6739.084197881146
460,-3.5038507864583996,-6754.817151925908
461,-3.375962839880997,-6768.178634566595
462,-3.2704592235464522,-6783.134723108742
463,-3.1738038198555776,-6798.038585773624
464,-3.104278694374755,-6813.7201183793395
465,-3.0429713406414,-6828.326958861664
466,-3.000387685492881,-6844.052239267444
467,-2.9757549539866366,-6858.354711265694
468,-2.9640579813384127,-6872.5601697489565
469,-2.9698041255199703,-6886.793186460511
