N,lnPi(N),U(N)
0,-1472.4347036538595,0.0
1,-1461.8016514928509,-14.900754393562254
2,-1451.9189845891437,-29.777077520709003
3,-1442.486822395178,-44.657147837905455
4,-1433.38830865784,-59.51444755160132
5,-1424.4741158307959,-74.34977005639726
6,-1415.8028111208612,-89.2399895558022
7,-1407.2176300238125,-104.06980106029373
8,-1398.840489738182,-118.83340014624152
9,-1390.5757973012594,-133.6649825542521
10,-1382.4418577785982,-148.47989261383688
11,-1374.3854196772597,-163.29699081701028
12,-1366.4018111503271,-178.07237047378118
13,-1358.5453666442704,-192.86096598656576
14,-1350.721391069088,-207.60329286575376
15,-1343.019445820547,-222.32027390701217
16,-1335.3761616152203,-237.05438785605688
17,-1327.8530708184514,-251.7456808711564
18,-1320.385096013725,-266.4872238044547
19,-1312.9995498838073,-281.19417856792813
20,-1305.6469614149053,-295.83865892746957
21,-1298.330794498531,-310.4479567917952
22,-1291.0985003913554,-325.1347491737508
23,-1283.9022580844164,-339.7754638656492
24,-1276.7651219539232,-354.39835849646704
25,-1269.6618660322392,-368.9520131605156
26,-1262.6803855320145,-383.4869046298878
27,-1255.687274067434,-398.05802942192497
28,-1248.7511305487294,-412.63641177202203
29,-1241.8517604460258,-427.20102055347957
30,-1235.01147421012,-441.7075242218988
31,-1228.1990397944,-456.2500062989998
32,-1221.4545689221027,-470.7070252725751
33,-1214.7449198340325,-485.13763943408173
34,-1208.0878380501244,-499.58254789913684
35,-1201.4466647310894,-513.9796966051317
36,-1194.8615526181209,-528.4515752742913
37,-1188.32884989793,-542.8616487748722
38,-1181.8193589046843,-557.15917811283
39,-1175.3384814213255,-571.446227006161
40,-1168.9290109711146,-585.8298268811945
41,-1162.529511541598,-600.14318069857
42,-1156.1888984397995,-614.3961170710417
43,-1149.8651592669473,-628.7704925220258
44,-1143.5482949515533,-642.9857525924373
45,-1137.3100698028875,-657.2739392566002
46,-1131.1001687690673,-671.5714934444651
47,-1124.915060288447,-685.8595391676947
48,-1118.7747173952403,-700.097699195101
49,-1112.6484108185405,-714.398450266577
50,-1106.5277135313586,-728.5945452577071
51,-1100.462939411108,-742.818494527981
52,-1094.4396591344232,-757.1641936465546
53,-1088.4335123305773,-771.2227621166921
54,-1082.4604174171957,-785.3381579683593
55,-1076.5203054239098,-799.2378726388949
56,-1070.6201147723061,-813.2581442431225
57,-1064.727778268083,-827.3137064865738
58,-1058.89114076569,-841.3892656358898
59,-1053.0853654082416,-855.3586501206917
60,-1047.281449261833,-869.3209300597221
61,-1041.5138363882784,-883.3190252644185
62,-1035.7752320384366,-897.3051770887015
63,-1030.0738702590552,-911.2305728965212
64,-1024.3926918337786,-925.4134891678252
65,-1018.7112602322204,-939.3060049261884
66,-1013.0758026847236,-953.1811455568379
67,-1007.4913715166678,-967.0366405913938
68,-1001.9115213471905,-980.7849334190065
69,-996.3601423207735,-994.8024434975516
70,-990.8400040682698,-1008.7172622728901
71,-985.3393042919117,-1022.5816778512249
72,-979.8618891602137,-1036.256542507572
73,-974.4191272813207,-1049.9839574870305
74,-968.9910443656306,-1063.723349993314
75,-963.5813349251023,-1077.562505605524
76,-958.2018610949241,-1091.2461287013155
77,-952.848782362653,-1104.8494745194369
78,-947.5106556911801,-1118.6227697075249
79,-942.2171492090541,-1132.5135145547497
80,-936.9497627409812,-1146.3032705837845
81,-931.6826565659139,-1160.043327212933
82,-926.450872022679,-1173.984254095534
83,-921.2502602319614,-1187.762372838043
84,-916.0626379448564,-1201.462754528958
85,-910.905105676788,-1215.2154076290055
86,-905.7551648113085,-1228.8796763470662
87,-900.6300040860219,-1242.3841369824686
88,-895.5462985875101,-1255.8435438158713
89,-890.4735050554747,-1269.395092458456
90,-885.4365226481119,-1282.9667070128933
91,-880.4048246799007,-1296.3624116043377
92,-875.4042409891294,-1309.8645360444202
93,-870.439047565794,-1323.6170012214352
94,-865.4685663729658,-1337.2759570552348
95,-860.5418100314837,-1350.7283259031733
96,-855.6343142352487,-1364.1178104694636
97,-850.7375873097345,-1377.5530574752777
98,-845.8431892074892,-1391.0574447265826
99,-841.0014204569181,-1404.886262233102
100,-836.164804810596,-1418.354343351084
101,-831.35878987775,-1431.8771887761345
102,-826.5720524908654,-1445.4254810089292
103,-821.8024324325843,-1459.0252403722966
104,-817.0601184773175,-1472.6296318167967
105,-812.328626584777,-1486.129067365213
106,-807.6214233544815,-1499.812355717076
107,-802.9197533836534,-1513.2496176072066
108,-798.2746280040933,-1526.7380403919576
109,-793.6310485717179,-1540.0990750978146
110,-789.000039027657,-1553.5537295823815
111,-784.3897194505432,-1566.9693939294345
112,-779.800436610599,-1580.522344032535
113,-775.2369788835986,-1594.0276909029167
114,-770.6966189846406,-1607.4895927015507
115,-766.1709561668318,-1620.9652847644036
116,-761.6581252726503,-1634.3759914696998
117,-757.167055636978,-1647.8921013355612
118,-752.6859368789482,-1661.1165718626314
119,-748.2413223623495,-1674.5296954282364
120,-743.8039445973279,-1688.1627846318918
121,-739.3794232972645,-1701.683460959016
122,-734.9889117571327,-1715.1101349373898
123,-730.6156973884117,-1728.6741069335487
124,-726.2553458563741,-1742.2684120946574
125,-721.9199038588571,-1755.509126898544
126,-717.5948754551747,-1768.9159058880782
127,-713.2907376369978,-1782.561527923168
128,-709.0153283137128,-1796.0831206770645
129,-704.7453012463894,-1809.530681950243
130,-700.4907688638621,-1823.0485946232232
131,-696.2461291279695,-1836.5279698534498
132,-692.0342997830656,-1849.7712579668714
133,-687.8312200622778,-1863.4493376263351
134,-683.6492143735718,-1876.9500747626519
135,-679.4955084937428,-1890.2562978817616
136,-675.3428405834476,-1903.8587773061734
137,-671.2150862867818,-1917.30664289614
138,-667.0980103319647,-1930.8115507927027
139,-662.9975052871948,-1944.304976477679
140,-658.9122235031671,-1957.6630916020333
141,-654.8413730591686,-1971.1299563563116
142,-650.8014004771968,-1984.5892677231498
143,-646.7659539112435,-1998.1380546255375
144,-642.7510131998198,-2011.6483332077678
145,-638.7506437543598,-2025.182283330411
146,-634.776522444821,-2038.768975892763
147,-630.8080024071272,-2052.477353825457
148,-626.8605977348186,-2065.994916204225
149,-622.9358971261456,-2079.4219803873384
150,-619.0213176703601,-2092.9078801643523
151,-615.1240345221008,-2106.277074820811
152,-611.239183664705,-2119.805762390309
153,-607.3761195725923,-2133.3765813505174
154,-603.5282372160641,-2146.920908047634
155,-599.6895511252113,-2160.5089020566293
156,-595.8689108292502,-2174.0823217296474
157,-592.0688426687929,-2187.6286172616915
158,-588.2834593813262,-2201.295280034215
159,-584.5049303941371,-2214.7075407557872
160,-580.7482651577874,-2228.1805906122295
161,-577.0077883864494,-2241.819765603448
162,-573.2807103411182,-2255.247227972754
163,-569.5699450154398,-2268.9325881764807
164,-565.868570895937,-2282.8830898792257
165,-562.1910572726485,-2296.377187660695
166,-558.5167667643963,-2310.0241414856396
167,-554.8607056408508,-2323.7816932720243
168,-551.2199519955683,-2337.2554925513577
169,-547.6026902221705,-2351.3445303655753
170,-543.9922582504677,-2364.867762878682
171,-540.396715785324,-2378.5011237334857
172,-536.8102934163024,-2392.228830023965
173,-533.247140880697,-2405.8310430242254
174,-529.6920817032365,-2419.6685862691534
175,-526.1664446575049,-2433.131809451989
176,-522.6478036770382,-2446.664999201713
177,-519.1566341446352,-2460.2400429709664
178,-515.6612830384412,-2473.9950324404745
179,-512.1908670059045,-2487.652457323376
180,-508.7273958237105,-2501.3835882404633
181,-505.2825947852392,-2514.8680782804645
182,-501.85205064255103,-2528.764884427718
183,-498.4390992803999,-2542.6345484225594
184,-495.0287952345461,-2556.6514183234967
185,-491.6399362898169,-2570.0054191280897
186,-488.26667941460346,-2583.402251241308
187,-484.9140398450496,-2597.2092197551115
188,-481.5756196186111,-2610.9039353290273
189,-478.2415618879136,-2624.8560077749144
190,-474.9350969104163,-2638.597675110454
191,-471.633668424852,-2652.59303512731
192,-468.3462001808176,-2666.312250757823
193,-465.0766314655142,-2680.1604082116005
194,-461.8185737170397,-2693.8238771977003
195,-458.5749866427893,-2707.9262968144303
196,-455.3472018566241,-2721.6062931996753
197,-452.1218928811527,-2735.803709633317
198,-448.9113078821424,-2749.909600475229
199,-445.7172972821211,-2764.0947123167875
200,-442.5441035781239,-2777.9823108756323
201,-439.38551383199206,-2791.9792749103904
202,-436.2288660831357,-2806.1094333433275
203,-433.0897890432716,-2820.047478920502
204,-429.96194153325973,-2833.937107946018
205,-426.8555791719359,-2847.9547634950954
206,-423.7606237322502,-2862.0028696592244
207,-420.6750562935033,-2875.9598389571274
208,-417.60204061101354,-2890.061818670192
209,-414.5502162312084,-2904.363349454656
210,-411.5088375191003,-2918.435317998033
211,-408.48159931407986,-2932.3340685208086
212,-405.4679582483395,-2946.4111325942163
213,-402.46036234941107,-2960.4900347160633
214,-399.4745351659701,-2974.7532318321832
215,-396.4828743888695,-2988.66995959517
216,-393.5122208768089,-3002.7770382044846
217,-390.5538116271821,-3016.7968883215412
218,-387.61219851807914,-3030.9707584028324
219,-384.6783633193006,-3045.3678578218696
220,-381.76038225203524,-3059.5071678065665
221,-378.85567954360295,-3073.6277081899943
222,-375.96398729561383,-3088.707070242964
223,-373.08004146565895,-3103.221526214124
224,-370.21444301148244,-3117.4808690515342
225,-367.36263332857516,-3131.5969311713425
226,-364.5293568708198,-3145.998348765289
227,-361.69664029776163,-3160.403454806431
228,-358.8734721241276,-3174.6093153890233
229,-356.0628178818595,-3188.765512138992
230,-353.2719555929166,-3202.900532922102
231,-350.49449402835376,-3217.374293572659
232,-347.7261551654974,-3231.843573923283
233,-344.9719817701032,-3246.1962744358575
234,-342.2322105162816,-3260.6277672309607
235,-339.49590615798525,-3275.109684650065
236,-336.77387512340056,-3289.3786864303747
237,-334.06682396214364,-3303.7664299041508
238,-331.37761851145115,-3318.3523362959354
239,-328.69233013957796,-3332.7339131976923
240,-326.01345734222014,-3347.1094225149213
241,-323.3575443848338,-3361.7046016175786
242,-320.7116160153323,-3376.260385753947
243,-318.07294195878285,-3390.63971319974
244,-315.45359220860587,-3405.165762349809
245,-312.8422595262664,-3419.673783653989
246,-310.24825538467167,-3434.264205902821
247,-307.66061512422607,-3449.03414701162
248,-305.08259977180046,-3463.5338927236758
249,-302.5158361706158,-3478.237034648121
250,-299.96521632347094,-3492.659360768272
251,-297.42824193100023,-3507.5101484336305
252,-294.8903150438091,-3523.098647409241
253,-292.3724103225959,-3537.9510522306955
254,-289.85668837877256,-3552.6475881254396
255,-287.35925665308196,-3567.3906220177755
256,-284.8752368987916,-3582.1402272324467
257,-282.3928986570561,-3596.914740013787
258,-279.9255669321976,-3611.5052188661753
259,-277.47442382370696,-3626.5968859018726
260,-275.033827660659,-3641.5724449242925
261,-272.59752575069956,-3656.5810596750985
262,-270.1752873279886,-3671.6888441771625
263,-267.767405020106,-3686.488883336222
264,-265.3691940994106,-3701.3295848976977
265,-262.98093813115474,-3716.503845058469
266,-260.6069993018016,-3730.2283221951334
267,-258.2492828130121,-3744.3454396355814
268,-255.89992907042847,-3759.0435756332736
269,-253.5579888030759,-3774.2486489538933
270,-251.23323714133335,-3789.1586116583603
271,-248.9157784782335,-3804.307607180154
272,-246.61744255401754,-3819.4872422235317
273,-244.32272747552997,-3834.738630192537
274,-242.03397044039093,-3849.403124528583
275,-239.75590506498133,-3864.4978385150343
276,-237.49533768738684,-3879.7451566405703
277,-235.24144573287572,-3894.913323482011
278,-233.00141153126742,-3909.898244393577
279,-230.77352059572218,-3924.902768697699
280,-228.55844723836503,-3940.465974256869
281,-226.34937275636207,-3955.4613915787304
282,-224.14540441550776,-3970.8500457916934
283,-221.96180849188022,-3985.7910378456227
284,-219.7895000638182,-4001.0006233547856
285,-217.62392206552,-4016.0666479808024
286,-215.46949685725485,-4031.3384279627207
287,-213.32902478293363,-4046.3859821354135
288,-211.19867838196296,-4061.320858349782
289,-209.07637243920067,-4076.384669680475
290,-206.96624234555156,-4091.808880723093
291,-204.86175187840558,-4107.081386229518
292,-202.77167446255567,-4122.4431432640395
293,-200.6996673018889,-4137.457599669787
294,-198.630611092467,-4152.4067678999245
295,-196.57857499184593,-4167.615511700129
296,-194.5359070247198,-4182.910475802495
297,-192.49948232637962,-4198.241764060467
298,-190.46410408649103,-4213.365082075739
299,-188.45071091599652,-4228.626522696173
300,-186.4473019107686,-4243.804653551383
301,-184.45330357232842,-4258.9608057159385
302,-182.46553021601517,-4275.103827882212
303,-180.4858416419372,-4291.051924026839
304,-178.5255631768457,-4306.397446582508
305,-176.56793220276836,-4322.001759000475
306,-174.62175177363497,-4337.6308855370735
307,-172.68747678342902,-4353.267063367585
308,-170.76057712221814,-4368.777226170616
309,-168.8386481441346,-4384.146390926122
310,-166.93125001392195,-4399.362734720405
311,-165.03328929942427,-4415.030880169555
312,-163.15092107856367,-4430.163594227211
313,-161.2755909517748,-4446.094176274074
314,-159.4082573738608,-4461.694810108159
315,-157.55833236792705,-4477.1129222479585
316,-155.71485548764258,-4492.581245782557
317,-153.88622024740766,-4507.68903700639
318,-152.06027573212464,-4523.218687010974
319,-150.2414142432408,-4538.437344057754
320,-148.44513967539774,-4554.231837107487
321,-146.6479557165692,-4569.557896999901
322,-144.87374159777664,-4584.583457139945
323,-143.10210122696435,-4601.410482640345
324,-141.3412924788595,-4618.897905046674
325,-139.5811519290403,-4634.611374040268
326,-137.83938115818478,-4649.847257969597
327,-136.1195152293276,-4665.293752360788
328,-134.39935541527188,-4681.004420290451
329,-132.68814864354272,-4696.556976967772
330,-130.98329832980812,-4712.639819382282
331,-129.28895931715556,-4728.586566260886
332,-127.6091361224694,-4744.092371041033
333,-125.93714796145831,-4759.640286906321
334,-124.28110305149356,-4773.8719663734255
335,-122.63296781283633,-4788.039790732198
336,-120.99852288920259,-4803.79738703629
337,-119.3673193079603,-4819.533204135057
338,-117.75649244956433,-4835.303721432972
339,-116.14771240305411,-4851.275520169154
340,-114.54756232425392,-4867.464805579091
341,-112.96359972545336,-4883.707398840692
342,-111.39067260247883,-4899.129259127039
343,-109.82890382291633,-4914.6912465048135
344,-108.27779720089255,-4930.0200340262145
345,-106.72906551092932,-4946.368374935296
346,-105.20306318261827,-4962.209470128483
347,-103.67965673159345,-4977.86991605054
348,-102.16592887286286,-4993.875680435676
349,-100.66130287862391,-5009.599414869052
350,-99.16529358222509,-5025.381336234276
351,-97.67891819505097,-5041.369864307982
352,-96.2116607940777,-5056.800685809552
353,-94.74909099574323,-5072.796751520056
354,-93.29402886139722,-5089.003763218338
355,-91.8524960751556,-5104.703791795868
356,-90.4222709457092,-5120.9681099959325
357,-89.00263471341485,-5136.616061482518
358,-87.58942045783736,-5152.421073349318
359,-86.1808919750333,-5168.102464946439
360,-84.78963227613643,-5184.121365124928
361,-83.4084696226041,-5199.441451409661
362,-82.0375497845955,-5215.5160251776515
363,-80.67587602893853,-5231.998270034582
364,-79.3246100569015,-5247.865977999558
365,-77.9825831291398,-5263.412566607412
366,-76.64705891010793,-5279.792110434821
367,-75.33525011018422,-5295.308074230793
368,-74.02681986652759,-5311.265278595206
369,-72.7283601813965,-5327.319674623973
370,-71.43656293685488,-5343.267107422097
371,-70.16505215607957,-5357.637930621524
372,-68.90567120559648,-5372.506164980906
373,-67.65813506415337,-5388.1776000362615
374,-66.41515737473422,-5404.074913803075
375,-65.18389868849793,-5419.634297096179
376,-63.96154450007883,-5435.377855561783
377,-62.75894466613384,-5451.622477330847
378,-61.56354531685564,-5467.685246862348
379,-60.37478487976135,-5483.803864226495
380,-59.20004844263893,-5498.857700147342
381,-58.036311181520645,-5514.673028075922
382,-56.88555816865299,-5530.773583560928
383,-55.73690865226193,-5547.173044003575
384,-54.60078163144543,-5563.821228385818
385,-53.46467919320365,-5580.360219761345
386,-52.35095316537193,-5595.8095899459495
387,-51.24616660666764,-5611.849313756237
388,-50.14998718999867,-5627.533766299141
389,-49.067475878603304,-5643.937625004534
390,-47.99956790051782,-5659.623400335874
391,-46.94493186228759,-5675.024378472287
392,-45.89637882889632,-5690.343608640003
393,-44.85793140531699,-5706.276271344927
394,-43.83715863317683,-5721.819139598346
395,-42.82552160226713,-5738.199454966034
396,-41.82033198212433,-5753.993843794389
397,-40.83041589229195,-5769.472938797971
398,-39.848062472963406,-5785.402964063367
399,-38.87471809901102,-5801.29977323862
400,-37.91346201211398,-5816.909243342913
401,-36.96234718710387,-5832.865979112006
402,-36.033662449337484,-5848.919247492058
403,-35.10921113052835,-5864.273607130904
404,-34.20228010205095,-5879.758977565556
405,-33.294967792873635,-5895.235381210383
406,-32.40472914651308,-5910.980725826519
407,-31.529332103185865,-5926.479814048329
408,-30.668755110459628,-5941.643181641875
409,-29.8160680366352,-5957.226319562454
410,-28.976680941616664,-5973.144013921597
411,-28.147635557012777,-5990.861124419797
412,-27.324896484869655,-6008.439091854391
413,-26.511729042600322,-6023.908758078721
414,-25.719719593707154,-6040.294023445006
415,-24.939557336963375,-6055.426130961568
416,-24.168642191938474,-6070.535302437835
417,-23.402139379116974,-6086.242573542073
418,-22.659114903047325,-6101.3457866847175
419,-21.927636646475307,-6117.343945644947
420,-21.206482031762093,-6133.74407773976
421,-20.49673179144746,-6149.730235537989
422,-19.799734270775375,-6166.6625901106045
423,-19.12351974473789,-6182.427370816111
424,-18.45192311764866,-6198.59810527
425,-17.79444146614172,-6214.720587482984
426,-17.15153701160169,-6228.746661886335
427,-16.523244205015757,-6242.317998942978
428,-15.907929404651428,-6257.629486676259
429,-15.299953202393441,-6272.726426317475
430,-14.71110705489649,-6289.661533183746
431,-14.127966937094458,-6305.639075365334
432,-13.567666644258667,-6321.245850837729
433,-13.015998204821686,-6336.830264663683
434,-12.482056750809749,-6352.327201414238
435,-11.962480213757077,-6367.65591373309
436,-11.467025933807678,-6382.426435308251
437,-10.968304284706152,-6397.349117191486
438,-10.490724472217368,-6412.980813855375
439,-10.023145736294724,-6428.695500990532
440,-9.572422447402447,-6443.7683848767465
441,-9.129681932011623,-6461.914425943427
442,-8.693159211664566,-6478.704543534558
443,-8.275003151564066,-6494.356043840499
444,-7.875119186610151,-6509.526036972774
445,-7.488515488456857,-6524.633890094566
446,-7.120889583498171,-6539.929861514541
447,-6.768182359618992,-6554.4483623377455
448,-6.429702548182137,-6570.0231242055115
449,-6.113350440428791,-6585.381698433681
450,-5.815401723655201,-6600.329705645535
451,-5.525007917932031,-6615.087902769813
452,-5.249008367430848,-6630.397612874391
453,-4.990869537553623,-6645.651461378017
454,-4.7404853243174205,-6661.654957878835
455,-4.509719544757205,-6678.5405525276865
456,-4.293257619718348,-6694.090882152771
457,-4.076787379371568,-6709.3830637619685
458,-3.887833764693583,-6724.628906389874
459,-3.718065382192877,-6740.35618519532
460,-3.5695312127336236,-6755.513979715215
461,-3.4306100240564645,-6769.681226636971
462,-3.3076456042015123,-6784.381013267478
463,-3.2095391607526707,-6799.386555081063
464,-3.12231434096701,-6814.66074035219
465,-3.051285014986648,-6829.621108299033
466,-3.0003350527840538,-6845.725289346192
467,-2.968718175361333,-6861.290455079213
468,-2.9545656583024864,-6873.167084583518
469,-2.9571438295085826,-6886.055389665306
470,-2.973153627181533,-6901.020369581977
