N,lnPi(N),U(N)
0,-273.8921938106178,0.0
1,-267.831069060922,-13.15259890411835
2,-262.48302315030224,-26.325783011525346
3,-257.53177836050537,-39.58239959457569
4,-252.86599813024984,-52.881866937997984
5,-248.4361011157466,-66.11593493363034
6,-244.1750409523538,-79.56150606615847
7,-240.06945096449974,-92.96116434672876
8,-236.1089975223035,-106.28716129813984
9,-232.25845445762585,-119.80337236784544
10,-228.50046576036078,-133.35757436510175
11,-224.85114127515908,-146.8528129610495
12,-221.28053323371878,-160.45400406804401
13,-217.7919264965357,-174.07758215222566
14,-214.38545355831434,-187.71981490644976
15,-211.0454210792224,-201.4161283870053
16,-207.765067177772,-215.0930366127359
17,-204.54815576660909,-228.85519958869554
18,-201.3887141012824,-242.6910960706373
19,-198.28868557187232,-256.6132103365453
20,-195.22227622183485,-270.57147433247883
21,-192.22185516964316,-284.3712218837827
22,-189.268528020874,-298.29937000205973
23,-186.35985844619356,-312.2829059463329
24,-183.49706364225025,-326.4043057798772
25,-180.67390748613954,-340.51735899873165
26,-177.8881951933004,-354.56759395397967
27,-175.14330013652682,-368.681732226185
28,-172.42586475438517,-382.96500374657626
29,-169.75669549957396,-397.1778555160563
30,-167.12144034302423,-411.33014768193243
31,-164.52302677247835,-425.69797442125855
32,-161.94997870124075,-440.148050142765
33,-159.40502150672538,-454.5346338087111
34,-156.89200005814527,-469.0591279113578
35,-154.4155941061878,-483.5334245861304
36,-151.96548510534123,-497.9750855901584
37,-149.54805849624555,-512.5049229986325
38,-147.16314941279975,-527.1060379589326
39,-144.80489522292058,-541.672602978666
40,-142.4681854934139,-556.5170823602166
41,-140.16207733831786,-571.2379415043324
42,-137.87495583599437,-585.9406461275648
43,-135.62556872371664,-600.5650670484756
44,-133.39835013771702,-615.5206951814544
45,-131.19561617546262,-630.4754152169771
46,-129.00759900084972,-645.7045067336658
47,-126.85037290577283,-660.847941246655
48,-124.70936701369907,-675.8328782793251
49,-122.59017491474113,-690.9363621439552
50,-120.49795826339935,-706.1549885008208
51,-118.4284531052639,-721.2087748836129
52,-116.37891084154954,-736.3877518759618
53,-114.35608785066727,-751.4192513080343
54,-112.35583066482364,-766.7439761010537
55,-110.37114332061934,-782.1625893543387
56,-108.40771700497324,-797.723595577052
57,-106.4652972891691,-813.1345371467396
58,-104.54251400705458,-828.5627395657648
59,-102.63726225117809,-843.9680891579628
60,-100.75716116118458,-859.454063490899
61,-98.89042650813893,-875.2371755074346
62,-97.04747926363034,-890.8724616727923
63,-95.2206367722343,-906.414651162966
64,-93.42538280988107,-922.1430749962383
65,-91.63685696560718,-937.8001122027053
66,-89.86690496219778,-953.4294803383309
67,-88.12127793201999,-969.1423689980584
68,-86.3990705164792,-985.1840671020473
69,-84.68317007933335,-1001.224821705473
70,-82.98639563017578,-1017.3004818603877
71,-81.30995452632781,-1033.1760386670867
72,-79.64817131686603,-1049.3689284759457
73,-78.01222469428437,-1065.469162381698
74,-76.39107844402515,-1081.5833738113797
75,-74.78951994928555,-1098.136160705646
76,-73.20338620590984,-1114.4048031621787
77,-71.63291633211374,-1130.9284961934536
78,-70.08252684107937,-1147.4051074101153
79,-68.54334370890881,-1163.7311365825153
80,-67.02530568438381,-1180.1141870010542
81,-65.52841401250824,-1196.896683554558
82,-64.05163257783992,-1212.9193701829063
83,-62.58802697706633,-1229.3319028233964
84,-61.146290624380065,-1245.9224247457823
85,-59.7241963844234,-1262.7674060339632
86,-58.3133452753278,-1279.5035145363072
87,-56.922635978466666,-1296.6072868692063
88,-55.53806009524495,-1313.2821192453557
89,-54.17384031117992,-1330.0839704089667
90,-52.82532201767605,-1347.2455137892102
91,-51.4974363167239,-1364.2531635817504
92,-50.19166927319042,-1381.3426403427802
93,-48.89901114955489,-1398.4168051032975
94,-47.62487805007557,-1415.6142276118553
95,-46.363407317328374,-1432.7701556750035
96,-45.12381437473692,-1450.1738847585075
97,-43.89759778467964,-1467.3728377942825
98,-42.68753942294193,-1484.78414907564
99,-41.492793417067695,-1502.2742286143766
100,-40.31792802422657,-1519.7670746441217
101,-39.16079664276898,-1537.1819100861248
102,-38.017679566844855,-1554.6696678030348
103,-36.890575737149526,-1572.3057802543917
104,-35.78283554845512,-1590.096462151334
105,-34.691039501127555,-1608.0569512609582
106,-33.6193189388837,-1625.8814432633299
107,-32.55794400226292,-1643.711787912478
108,-31.517280746106813,-1661.6269409969245
109,-30.4925051416973,-1679.701764240359
110,-29.481969852455755,-1697.69679884988
111,-28.48983413572673,-1715.892327565758
112,-27.515566379538136,-1734.0676849770825
113,-26.55482704484489,-1752.2826065032204
114,-25.61940658492022,-1770.2993342031696
115,-24.701250709620943,-1788.5794099940686
116,-23.795323716194382,-1806.8782780378242
117,-22.912611929592053,-1825.2072226468517
118,-22.04719054559208,-1843.7776136057437
119,-21.200022751633178,-1862.4064178990739
120,-20.36581415841058,-1881.1104616854063
121,-19.548063858144864,-1899.743576707784
122,-18.75271156188628,-1918.4128204285953
123,-17.974445994437694,-1936.9898451092522
124,-17.215447486882702,-1955.8496568022456
125,-16.473042270341374,-1974.8340622538744
126,-15.748147240847137,-1993.8460483071322
127,-15.041016842628286,-2012.8947786684002
128,-14.353456182936574,-2031.828708690031
129,-13.683768687531616,-2050.9426760809365
130,-13.036581423110723,-2070.1157102986326
131,-12.406443596407675,-2089.161817262662
132,-11.797316906819068,-2108.1157269418254
133,-11.203996887340699,-2127.4999493909054
134,-10.630870546927516,-2146.8869570020033
135,-10.0767232768301,-2166.3790731558693
136,-9.544300932986479,-2186.090447297225
137,-9.030161845927827,-2205.9166534818723
138,-8.533212718073818,-2225.817581184281
139,-8.057071587676054,-2245.6481854992962
140,-7.6007141469750845,-2265.3602169263904
141,-7.165511647938294,-2285.271869623837
142,-6.746188378798555,-2305.1593757275186
143,-6.348528305639794,-2324.969169930584
144,-5.967669486955819,-2344.9215599063537
145,-5.610240493663772,-2365.2032780236987
146,-5.2755267414667255,-2385.4839424505844
147,-4.963463441282064,-2405.5263611760893
148,-4.666523063089491,-2425.8231399712895
149,-4.391156838309334,-2446.742009222704
150,-4.13922662338509,-2467.8661710833694
151,-3.904078185134344,-2488.534964417151
152,-3.690465985580167,-2509.064384846766
153,-3.504885196895279,-2529.583344135928
154,-3.3391335571316945,-2550.0846490336116
155,-3.1933580750016604,-2570.2976565452773
156,-3.076929537784642,-2590.607205257147
157,-2.973676218942748,-2611.517770359773
158,-2.8976486266992283,-2632.3492663156067
159,-2.8452634192290334,-2653.717588164429
160,-2.815610419121319,-2674.8648010689576
161,-2.806093528429662,-2696.2764550602224
162,-2.8143606490504767,-2717.7680553917016
163,-2.85118734943446,-2738.977162843934
164,-2.915789744869889,-2760.2590485615365
165,-3.000447409206308,-2781.5737991364294
166,-3.1095941076362323,-2803.433512084499
167,-3.241434303331707,-2825.333536579383
168,-3.3985032872755228,-2846.632050531378
169,-3.5725148920275474,-2868.2271379865197
170,-3.77775904116057,-2889.6148957584082
171,-4.00734285870603,-2911.3740790829906
172,-4.2675577107077824,-2932.5901651227323
173,-4.552247544866608,-2953.861888451982
174,-4.86723152164952,-2975.9982623043034
175,-5.204669374705778,-2998.3568166172336
176,-5.566962497036988,-3020.84476254171
177,-5.957147923528984,-3042.5137926534007
178,-6.381782921591499,-3064.1016040935865
179,-6.827842905079441,-3086.4792680628016
180,-7.302483579461258,-3108.549168816913
181,-7.805399523635819,-3130.9247510503264
182,-8.340191040493911,-3153.477881142331
183,-8.896503028110564,-3176.07149267404
184,-9.481490937069813,-3198.476459528436
185,-10.093050752927715,-3221.258939062238
186,-10.742003278005958,-3243.998252880454
187,-11.405330125450368,-3267.010606583688
188,-12.10143070718586,-3289.009387954553
189,-12.837140653886157,-3311.395022451172
190,-13.59822367356414,-3334.2177682758993
191,-14.391211607766442,-3356.99725553178
192,-15.215774110207368,-3379.880937008107
193,-16.062091003076624,-3403.952990953723
194,-16.93300480636136,-3427.460072278038
195,-17.833898635738045,-3450.5899398828187
196,-18.766281365323373,-3473.5716955236276
197,-19.741650351481262,-3496.5711065427386
198,-20.73960391032829,-3520.330186089319
199,-21.77046774555233,-3543.8130603075915
200,-22.840252716156577,-3566.9302533347654
201,-23.95366248469474,-3590.0740357120376
202,-25.10769340142442,-3613.157810852943
203,-26.280258985321574,-3637.418270277689
204,-27.490518291095718,-3661.6181300683093
205,-28.737445043769178,-3684.915305097471
206,-30.011027484814484,-3708.7422560781197
207,-31.32696005451509,-3732.6418856240853
208,-32.67053716315973,-3755.3130733118087
209,-34.04884767547451,-3777.291539712023
210,-35.4667068988121,-3800.247226157975
211,-36.926699720453705,-3823.968140045312
212,-38.41601763774971,-3848.152950407566
213,-39.95238695356368,-3872.8953229459876
214,-41.527198619226446,-3897.4102155441724
215,-43.15227940431327,-3921.233290805976
216,-44.814787513777155,-3944.8355293345376
217,-46.508902113794754,-3969.0619521927583
218,-48.24787410607339,-3993.3654475909134
219,-50.02035789256734,-4017.1726805026556
220,-51.82777738622075,-4041.417731156085
221,-53.68939784371266,-4064.6571232559872
222,-55.60011934612563,-4087.9181215465505
223,-57.544293074995004,-4112.350187308308
224,-59.52629053316689,-4137.097738562115
225,-61.54974114470462,-4161.481444176796
226,-63.61711269193628,-4185.526288108704
227,-65.72892361302247,-4209.501582825331
228,-67.8916056611565,-4234.181749709314
229,-70.10557784973442,-4258.2992280123435
230,-72.36033194960255,-4281.845911903918
231,-74.65525478945567,-4306.375353125302
232,-77.01519723713419,-4329.820940580605
233,-79.42590626274229,-4356.181010131295
234,-81.87961026216847,-4381.598789342272
235,-84.3694027740978,-4405.623849223062
236,-86.9158344117,-4430.262964445763
237,-89.50245384834504,-4453.375699545846
238,-92.13568203342386,-4477.466148206324
239,-94.8286024448109,-4500.8120875968525
240,-97.56889118653761,-4524.985099385813
241,-100.38854793986819,-4549.86543661078
242,-103.27451590825423,-4573.813970284144
243,-106.22482565894181,-4597.138352260248
244,-109.21831532920645,-4621.356284355526
245,-112.26506578647702,-4645.4482092727485
246,-115.35426633617784,-4668.987667033769
247,-118.50522335851745,-4692.381360987005
248,-121.68316459912133,-4716.04029522722
249,-124.95312193572862,-4739.2193351121605
250,-128.26879585965182,-4763.947079791462
251,-131.64434265129415,-4790.002091512171
252,-135.07573299756535,-4815.6177996126935
253,-138.55917741573734,-4841.295044324201
254,-142.12516705463818,-4865.934790343381
255,-145.77192055763916,-4888.261508164389
256,-149.4733594647769,-4909.367309368885
257,-153.210174263095,-4930.646053363926
258,-157.0074521820749,-4954.668797571554
259,-160.90945658338833,-4976.73805269388
260,-164.83799586871956,-5004.502323858571
261,-168.8503543828409,-5027.471199194566
262,-172.93581652272354,-5051.0300116578
263,-177.05841671391542,-5073.339388706569
264,-181.2264753067581,-5097.490582696213
265,-185.48867121038694,-5120.449874556383
266,-189.79106231532737,-5141.615177628133
267,-194.21821697081234,-5163.464531066646
268,-198.7344718668152,-5188.490249813709
269,-203.26112522389687,-5214.886601109807
270,-207.85222329022068,-5239.096364068377
271,-212.5262011847791,-5262.407908392321
272,-217.22017933665012,-5285.57244693672
273,-222.1005333157215,-5308.4564445537835
274,-227.1156758452672,-5326.239091797688
275,-232.07493588013796,-5349.398011558806
276,-237.11160728637222,-5371.966999423923
277,-242.26590892016952,-5393.620850495361
278,-247.46149046356308,-5413.41412131612
279,-252.73185384726006,-5433.2636371687695
280,-258.1036488637568,-5451.618932842728
281,-263.54813529223134,-5478.608152180095
282,-269.02857172510926,-5500.206438728783
283,-274.6340025952719,-5524.626152931873
284,-280.36507337809263,-5550.578613626269
285,-286.20024171342675,-5571.212690090775
286,-292.0504022292594,-5593.399943136734
287,-297.9467569563585,-5619.853778973156
288,-304.0034239230016,-5643.204601565747
289,-310.1067951863027,-5658.3365919565695
290,-316.35261473936555,-5680.552777415585
291,-322.59573811429686,-5698.71445864025
292,-329.05987329933197,-5720.367744220108
293,-335.5611866527393,-5740.616337633772
294,-342.0362492388041,-5760.207781317113
295,-348.5277884593364,-5779.35915429148
296,-355.1105360643766,-5802.398441454447
297,-361.6861628795208,-5823.398776127491
298,-368.55580698833614,-5840.795960683099
299,-375.4288320620302,-5864.659339834718
