N,lnPi(N),U(N)
0,-569.4575345807984,0.0
1,-560.0256416944869,-16.52959457825191
2,-551.3604168304537,-32.70087764577131
3,-543.1336637993601,-48.32958513974682
4,-535.3117575223168,-63.56855056370531
5,-527.7381922139592,-78.4288522580409
6,-520.3946452363148,-92.77715500725265
7,-513.2542451261082,-106.66910018124142
8,-506.3021715080229,-120.04020080003885
9,-499.52095604198496,-132.95568471961292
10,-492.88016679798585,-145.67551748257938
11,-486.37527129428275,-157.94247487980897
12,-479.9810738041716,-169.87099936139245
13,-473.7232825587707,-181.648704069973
14,-467.56797646170884,-193.21868324399796
15,-461.50171818853676,-204.6661822011807
16,-455.52830273360206,-215.88219262464264
17,-449.6470998635944,-227.18127019160366
18,-443.85006365233914,-238.2628508382314
19,-438.1376211210234,-249.15763124343368
20,-432.4995614619385,-259.9610725901557
21,-426.9172075202486,-270.74533196410584
22,-421.40433176637185,-281.4540830031597
23,-415.94923311759254,-292.17710035427893
24,-410.55393433226976,-302.83021861014856
25,-405.2028644629627,-313.50375950286383
26,-399.92869285542207,-324.09833650426424
27,-394.6834191856412,-334.75560114495084
28,-389.5013613771021,-345.4748079237854
29,-384.36575178987334,-356.19126220706465
30,-379.2917150394907,-366.831803606414
31,-374.2617666734199,-377.53132746403855
32,-369.2666820175772,-388.13942990875904
33,-364.31579339760657,-398.7304096670077
34,-359.3995986058048,-409.4264215286261
35,-354.53190925345007,-419.86728439023943
36,-349.7101195422385,-430.53189299616633
37,-344.92202188505854,-441.2507456539949
38,-340.18011414206586,-451.9757079066406
39,-335.46492240103055,-462.63166417461053
40,-330.78463749368876,-473.41085419800123
41,-326.15264578252317,-484.21068615075797
42,-321.5491917405704,-494.9694798570833
43,-316.9840087610779,-505.750818191625
44,-312.44968664272227,-516.510037765988
45,-307.9555661838615,-527.2846109739576
46,-303.4929521166007,-538.125229748068
47,-299.0681584225499,-548.9450960466995
48,-294.67160980061635,-559.8936556929484
49,-290.3067522784066,-570.7576411946778
50,-285.97179820747135,-581.6815968218062
51,-281.66683730273456,-592.6746997044565
52,-277.40005483544775,-603.52348088827
53,-273.15560072572276,-614.5031382978567
54,-268.9439832945436,-625.4864080304694
55,-264.7727926755655,-636.425263037544
56,-260.6263505693943,-647.3857792695353
57,-256.5072766419092,-658.4991994362236
58,-252.41427125366232,-669.5043202996568
59,-248.35249817870766,-680.6445088503106
60,-244.32097035673866,-691.9192833194372
61,-240.320774053906,-703.2293746910816
62,-236.35061893879464,-714.4838398739174
63,-232.40558435995018,-725.7483817355636
64,-228.48774691385285,-737.113139463192
65,-224.59788680097478,-748.4141969769768
66,-220.73528037400564,-759.7953312805596
67,-216.9016799519452,-771.1438485009844
68,-213.0951858471268,-782.5567199314912
69,-209.32971712859398,-793.9769502082665
70,-205.58595248991855,-805.3832742474248
71,-201.8716491807101,-816.9444687463697
72,-198.1752936083907,-828.4568630928568
73,-194.51642150616368,-839.9228330674107
74,-190.8846411191654,-851.5147600717929
75,-187.28418982038448,-863.0481432771594
76,-183.7105567734547,-874.6102876586459
77,-180.16961362741586,-886.177888644585
78,-176.6473545012836,-897.806674903053
79,-173.15733912303392,-909.4320484886857
80,-169.69544059379945,-921.2225411849788
81,-166.25846190913688,-932.9376113427194
82,-162.85950999103096,-944.6032920796911
83,-159.48684743687141,-956.3007474065193
84,-156.14480400465618,-968.0959597965139
85,-152.83308322465746,-979.9998996201421
86,-149.54546199752406,-991.9227531071078
87,-146.28872678032246,-1003.8775900479606
88,-143.0631352274201,-1015.8935866390673
89,-139.86363300017086,-1027.8419360210494
90,-136.6933100083353,-1039.9076454534245
91,-133.55484455796568,-1051.9930466465978
92,-130.43784296355358,-1064.2036511850117
93,-127.35364593680345,-1076.344359052457
94,-124.30377616928769,-1088.2574018768044
95,-121.28635024509452,-1100.5685549454101
96,-118.29546006980934,-1112.9669139894597
97,-115.33668815060224,-1125.2902922312817
98,-112.40453984970031,-1137.7205648598656
99,-109.50358366565752,-1150.0227736300558
100,-106.63219599606822,-1161.981391519542
101,-103.79455814205454,-1174.0069504280577
102,-101.00042111266345,-1186.3478766970507
103,-98.22969091379622,-1198.876878818768
104,-95.48986713556184,-1211.4375922892145
105,-92.78631431907729,-1223.9895047669788
106,-90.11137548980463,-1237.079032679461
107,-87.46190874674699,-1250.046636955667
108,-84.8456780919849,-1262.7648717339139
109,-82.2668636311169,-1275.3494792082902
110,-79.71228683337978,-1288.0353939838744
111,-77.19725827033125,-1300.1194645647765
112,-74.71090084186795,-1312.4943607004416
113,-72.27273165076173,-1325.154672309503
114,-69.85860596090271,-1337.9895656762403
115,-67.48010036461204,-1350.752832014133
116,-65.13751911576043,-1363.7801434432977
117,-62.831935829858764,-1376.9249190683524
118,-60.56278831875943,-1389.9633606535972
119,-58.325686591217675,-1402.8446367431113
120,-56.13250410052359,-1415.8411781639334
121,-53.96999586618921,-1429.0263680771566
122,-51.83898834054679,-1442.215097287519
123,-49.746715345912946,-1455.3426768236593
124,-47.70236419567442,-1468.546429047861
125,-45.69083244452605,-1481.6061475986298
126,-43.71168652447983,-1494.9559701258256
127,-41.777176883283744,-1508.1309355731366
128,-39.886464476555545,-1521.1235705949882
129,-38.024315978685024,-1534.3830745433884
130,-36.20659280390424,-1547.564997695317
131,-34.427981173473825,-1560.8223754337232
132,-32.696971546224916,-1573.7883449860237
133,-31.01812545280842,-1587.220492275547
134,-29.37273204505601,-1600.8420237317087
135,-27.770502674081683,-1614.3353005721265
136,-26.202643178739265,-1627.9473949794165
137,-24.672254364537878,-1641.4400191056288
138,-23.189554261158662,-1654.7800862999143
139,-21.754708660543486,-1668.3755330383397
140,-20.366934446615062,-1681.8918783714596
141,-19.023444459426912,-1695.7859446759305
142,-17.722341650500027,-1709.6936200239916
143,-16.459102272598386,-1723.5127010436045
144,-15.253381601431725,-1737.0157567398421
145,-14.089187537910048,-1750.8567792317494
146,-12.97176462173587,-1764.5079730536893
147,-11.892546138191447,-1778.1169460519782
148,-10.878008864092463,-1791.6805938809136
149,-9.922820469611052,-1805.2791621527745
150,-9.009405649837445,-1819.1076186216726
151,-8.150751341668466,-1833.5623486758816
152,-7.3389712656881425,-1847.2989540892254
153,-6.6003970282285405,-1860.979837024764
154,-5.898229635359767,-1875.1272160600106
155,-5.233254585710652,-1889.5755106336323
156,-4.645745581025208,-1903.041200821465
157,-4.116715290950138,-1916.842745696434
158,-3.6550726277125123,-1931.0638028728538
159,-3.2591075856307143,-1944.6145866777943
160,-2.9219210625572587,-1958.176046303362
161,-2.655003931203224,-1972.149859910867
162,-2.4527617729955282,-1986.0804673023226
163,-2.312952292043916,-1999.5864711093293
164,-2.237543715861021,-2013.516978784464
165,-2.2303700709497307,-2027.0229195653824
166,-2.304090090333317,-2040.6350788687523
167,-2.4612286615529784,-2053.7910690781428
168,-2.6955013349409556,-2067.751348043583
169,-3.0250487784194875,-2080.971768136932
170,-3.4192987604167784,-2094.7395509471194
171,-3.9103782052756615,-2107.726256334487
172,-4.4799363332068065,-2121.076267489822
173,-5.1419675955069675,-2134.2008372390856
174,-5.870869289783569,-2148.427791277169
175,-6.74002305405048,-2160.715460357192
176,-7.698839320527041,-2173.964985870289
177,-8.746509242440252,-2185.566519058192
178,-9.896569378042555,-2198.349288445365
179,-11.168406635876236,-2210.6078921808444
180,-12.57356593085643,-2221.7474501672846
181,-14.082479823176923,-2232.696606208503
182,-15.743487587699688,-2244.547402124914
183,-17.461649543399687,-2255.9727447059413
184,-19.31659937501405,-2266.8968234467266
185,-21.28768549792136,-2277.8470993382325
186,-23.425809657027628,-2288.097251766123
187,-25.65077383204965,-2298.797517637344
188,-28.02311326360808,-2307.9583058312464
189,-30.531523291477072,-2318.6027667133008
190,-33.193908431717375,-2328.4383836270845
191,-36.03300469430252,-2336.2254461241605
192,-38.90279614683715,-2345.112548010377
193,-41.98433851106114,-2354.5831171970735
194,-45.16270007468535,-2364.7142509146247
195,-48.45740595026376,-2373.9307258517047
196,-51.89568531919787,-2381.0535286116183
197,-55.49387359605595,-2390.0545737212683
198,-59.27828391547473,-2398.4954371688955
199,-63.24706709914432,-2406.767723006987
200,-67.33798465680252,-2414.207560780314
201,-71.54363239863193,-2422.7224957791664
202,-75.9235123605012,-2429.8394401616497
203,-80.46868889598267,-2436.3828925049593
204,-85.16888944287456,-2443.104443421122
205,-90.06243360472331,-2450.9743938393326
206,-95.13509276916596,-2456.16587689878
207,-100.28786909451935,-2461.2294901508494
208,-105.56982345904788,-2469.8517195020295
209,-111.10114068107879,-2474.5668299385825
210,-116.74211417850171,-2481.123334575721
211,-122.64090818026187,-2489.681835540724
212,-128.65286016420066,-2491.8368404363814
213,-134.74417339092872,-2493.3073991595443
214,-141.0324151817806,-2509.4200531020006
215,-147.4706333470271,-2510.3770869960767
