N,lnPi(N),U(N)
0,-460.35361128025653,0.0
1,-451.8650096038806,-14.682696087436943
2,-444.06383462394484,-29.059549772622763
3,-436.72053898490367,-43.0006926297815
4,-429.6835258905448,-56.59586929969122
5,-422.89296118281777,-69.93600497719702
6,-416.3433109073054,-82.94070301778305
7,-409.96273440028364,-95.6173975545805
8,-403.7443935880333,-108.0251427835007
9,-397.67777019588016,-120.17579888095393
10,-391.7348666337274,-132.14217457177648
11,-385.9223258295003,-143.89523210773933
12,-380.2167675829,-155.46848203723368
13,-374.6154119115306,-166.82867249738652
14,-369.109127108798,-178.02799062662908
15,-363.69304308031525,-189.12289140868234
16,-358.35655932033575,-200.10946077498846
17,-353.10525538949395,-210.90953959233264
18,-347.9153102726249,-221.682534325257
19,-342.7991805765086,-232.38765154383242
20,-337.7618554918087,-242.95577050755037
21,-332.7931620520699,-253.61624344209946
22,-327.8768398054448,-264.1297112312505
23,-323.0379822750149,-274.482142714949
24,-318.24527034955327,-284.9773105068052
25,-313.50971031401514,-295.38525107867036
26,-308.8312662545309,-305.8437555629577
27,-304.206956971279,-316.1581223848738
28,-299.62587971658854,-326.5750271945732
29,-295.09389886900414,-336.8951773644334
30,-290.6065921800656,-347.3185094562175
31,-286.1725682844758,-357.64570194297585
32,-281.78077328780233,-368.06340037347155
33,-277.43389804667294,-378.2965831781141
34,-273.1258942073938,-388.69924693540025
35,-268.86146923941703,-398.8589991953588
36,-264.64035485905447,-409.2163034025851
37,-260.45448084595415,-419.6495172183643
38,-256.31868874951954,-429.9624439993595
39,-252.2123411659883,-440.4134263450312
40,-248.14728801515776,-450.7437374117473
41,-244.11826077618827,-461.21357985952324
42,-240.13062279947056,-471.75350499448115
43,-236.1720645844735,-482.1791659716279
44,-232.25703598354502,-492.55819145127793
45,-228.3692374928579,-503.15071612475515
46,-224.5185761828746,-513.7445457792178
47,-220.69950800174783,-524.3438994503092
48,-216.91528624414974,-534.9347396053984
49,-213.1622362589582,-545.5210520626628
50,-209.44658502219966,-556.1668376899522
51,-205.76204395933544,-566.8306734288361
52,-202.1085731982235,-577.4750023362255
53,-198.4905259020797,-588.0753195746856
54,-194.89762934593773,-598.8000768925668
55,-191.33344910887115,-609.4540034666715
56,-187.80372054645863,-620.1791033641465
57,-184.3102670128455,-630.9917181364316
58,-180.8505743927637,-641.7613507894464
59,-177.41890840158885,-652.6451905864311
60,-174.02025301210284,-663.5130033457441
61,-170.65446899777606,-674.3272501507391
62,-167.31573510717584,-685.1839667741991
63,-164.00920472542487,-696.1244459973702
64,-160.7300512452394,-707.1241251287049
65,-157.48291462966262,-718.2264258336234
66,-154.2642971572687,-729.317385621576
67,-151.07643850630342,-740.5063362879463
68,-147.91734209761336,-751.5492699141557
69,-144.79418855327845,-762.5902943128364
70,-141.69749257366516,-773.9117461229052
71,-138.62463460385766,-785.2534301555634
72,-135.58890759767735,-796.4153189585774
73,-132.57653151358608,-807.5882675535394
74,-129.5963921968085,-818.8706478002779
75,-126.64461410803636,-830.2465143934903
76,-123.7245568618693,-841.57587782712
77,-120.8401823919715,-852.8141320770477
78,-117.98478256552602,-864.1559992104678
79,-115.15695967104085,-875.6238571730315
80,-112.35823828255246,-887.0415840316049
81,-109.58853636695875,-898.5107038961746
82,-106.85472743114764,-910.1501535058976
83,-104.15096924279823,-921.6517987093341
84,-101.4799191912818,-933.1402974576158
85,-98.83857591196727,-944.750169106958
86,-96.22765372162138,-956.6446092546554
87,-93.64245316903316,-968.6461026510337
88,-91.08786649367215,-980.3485500925117
89,-88.56967129801154,-991.9899170917203
90,-86.08865669937609,-1003.5938857828774
91,-83.62813660485733,-1015.2537238651663
92,-81.2002284615042,-1027.0137779478086
93,-78.80382712146479,-1039.1558575762851
94,-76.44075144038709,-1051.3441426107286
95,-74.10793443754233,-1063.2562596846874
96,-71.80588076196477,-1075.165854068868
97,-69.53391280112072,-1087.1955439204712
98,-67.30300265695519,-1099.0907699879906
99,-65.10854281746043,-1111.0943354359583
100,-62.94485407134919,-1123.2280097474559
101,-60.81002693623412,-1135.2712322406358
102,-58.71363032147371,-1147.360478006809
103,-56.64583555529287,-1159.5478534804981
104,-54.606498558557796,-1171.6563314578614
105,-52.60857547820091,-1183.8910659992478
106,-50.64766592836548,-1196.4061460360213
107,-48.72195440005691,-1208.8550077064897
108,-46.82514993275793,-1221.2599886228575
109,-44.96474603566258,-1233.86390256509
110,-43.138144233722635,-1246.4997592911097
111,-41.34651923673584,-1258.5259285553036
112,-39.59609981307408,-1270.7894489982914
113,-37.875548561463056,-1283.474022341015
114,-36.185573327951765,-1296.0497426904317
115,-34.53745498945823,-1308.7272964042752
116,-32.92765487996973,-1320.9743726758672
117,-31.355049211632597,-1333.7085739475813
118,-29.817512527110914,-1346.6289391181178
119,-28.319200215075902,-1359.4255126193784
120,-26.863263415280862,-1371.8650552535528
121,-25.438641387783825,-1384.6519406403154
122,-24.056054727684106,-1397.114146626108
123,-22.71149962888051,-1409.9323312750741
124,-21.40070757052137,-1422.6794691858313
125,-20.1312164789989,-1435.5206585783799
126,-18.906791349045868,-1448.4802560429819
127,-17.71766043119606,-1461.2876402310053
128,-16.56734409843198,-1474.2710792306293
129,-15.456001732191218,-1487.3740276787732
130,-14.390660941518426,-1500.4831415340693
131,-13.36988484628312,-1513.350931081962
132,-12.38964478044607,-1526.2154841641377
133,-11.444928496067,-1539.2029017871591
134,-10.542297602716523,-1552.6873962468958
135,-9.688903373456746,-1565.7787170336592
136,-8.876999995077362,-1578.3621376808521
137,-8.108984174250445,-1591.6163981265045
138,-7.3982314629427535,-1604.2473369721413
139,-6.7205741760878865,-1617.567008252603
140,-6.092578329711721,-1630.7056361663292
141,-5.511931773266774,-1644.2061880449496
142,-4.976352855286386,-1657.5209254181177
143,-4.498441264938599,-1670.8284073812379
144,-4.063253027395767,-1683.7577396788345
145,-3.664286298383324,-1697.2245825451464
146,-3.3284236644216705,-1709.850410694466
147,-3.0447635451934545,-1722.5907022073493
148,-2.81022096014231,-1735.87957527324
149,-2.6222194489955584,-1749.2323262861075
150,-2.484716499698372,-1762.768380731039
151,-2.399119763514072,-1775.9586271225046
152,-2.3703609269928094,-1788.9849759821602
153,-2.396262937711576,-1802.4781604292593
154,-2.482768981697511,-1815.9373518865418
155,-2.618098952187715,-1829.361333331546
156,-2.815941612090448,-1842.3428694061142
157,-3.066551505562579,-1855.8375140207202
158,-3.3742148868011483,-1868.7757538082874
159,-3.7458555575787997,-1881.6597644924386
160,-4.180634312451893,-1894.9995647169471
161,-4.697704521968653,-1907.8872349022442
162,-5.2542965889843956,-1921.097375816073
163,-5.899967968019318,-1934.210861028785
164,-6.604710424789566,-1946.8003410232234
165,-7.3557955885392445,-1960.2617845838427
166,-8.19363411967543,-1972.5646140275896
167,-9.111026023303104,-1985.1227139706664
168,-10.083902209845284,-1998.016216897212
169,-11.150665490899307,-2010.0808333227164
170,-12.298581311434582,-2023.0438114596648
171,-13.527612371596483,-2035.8499729624957
172,-14.816274942065654,-2048.155349656807
173,-16.200685069881835,-2059.992630385634
174,-17.67547131568835,-2071.5551156556116
175,-19.217411805039937,-2083.9704492204482
176,-20.87671807788808,-2096.1570554284476
177,-22.623974474870174,-2109.25721122275
178,-24.48564410768386,-2121.5432695715112
179,-26.44630013977126,-2132.263793133538
180,-28.493522176717413,-2142.8523046693454
181,-30.640472871203535,-2155.0308466934703
182,-32.91293729868209,-2165.5697370167013
183,-35.29151859028763,-2176.6413519417233
184,-37.736353246128594,-2186.8751095605717
185,-40.316290562278986,-2196.642105393032
186,-43.03175642314232,-2206.708735491568
187,-45.85337407942193,-2216.292336390709
188,-48.79413675090239,-2225.993204595573
189,-51.857028376707596,-2233.3365475412543
190,-55.05888011509733,-2242.384475585253
191,-58.36567768444086,-2252.4858319152067
192,-61.77669724018164,-2260.9190856071937
193,-65.32421742409423,-2269.2205588950783
194,-69.00524471399575,-2276.2301095789585
195,-72.86342167826507,-2282.104834819656
196,-76.8144954389532,-2290.2607085241657
197,-80.86263903126638,-2299.5940834982316
198,-85.07945496085364,-2304.6939032231285
199,-89.43301002784239,-2312.651643679514
200,-93.92800390355688,-2319.647293336777
201,-98.49141331861972,-2327.3059324653696
202,-103.24925928621519,-2333.8909565918884
203,-108.17481239581986,-2339.99619830905
204,-113.18744541173629,-2345.4982615334197
205,-118.41458259412087,-2349.732297581416
206,-123.80069114754758,-2355.8556966183082
207,-129.3118815114625,-2359.6631340523454
208,-134.8910933418054,-2366.623195338917
209,-140.7572286689781,-2371.164621148402
210,-146.6972867152498,-2373.4951622743297
211,-152.89838004268108,-2377.8722476323715
212,-159.09450561671787,-2381.019628784159
213,-165.58089298673377,-2382.439024974087
214,-172.1447603785287,-2386.5261479830424
215,-178.75302128752804,-2396.7068495142025
216,-185.54555215235706,-2405.247314959572
217,-192.5626478313564,-2401.4389456100594
218,-199.80411873988226,-2408.6217530775875
219,-207.25376938521617,-2408.115546249979
220,-214.89310278085762,-2406.3831019799145
221,-222.78511271608608,-2408.0154213910873
