N,lnPi(N),U(N)
0,-853.10729528025,0.0
1,-844.382367367717,-20.5514528323547
2,-836.2993632084124,-41.0915561147267
3,-828.6584489527681,-61.69533167761983
4,-821.3004497032085,-82.29409752989886
5,-814.2043770397544,-102.87242762034293
6,-807.2942259669001,-123.49738001194783
7,-800.5252644035498,-144.1438158354722
8,-793.8961848145846,-164.87788791570347
9,-787.4048353505565,-185.5750539318542
10,-780.9861890479868,-206.3360968994093
11,-774.6879650992224,-227.03118614316918
12,-768.4959765280959,-247.73320744844386
13,-762.3841352775913,-268.44470414100215
14,-756.3525617370705,-289.21369667432737
15,-750.4000054972761,-310.1149548285175
16,-744.5072639433537,-330.8415247578523
17,-738.6995216882877,-351.73678479954833
18,-732.9472717638903,-372.6671188217588
19,-727.2729120942571,-393.5493341946858
20,-721.659115976457,-414.38465365272714
21,-716.0842914015982,-435.25625873950776
22,-710.5710850048952,-456.279784214159
23,-705.1105397713848,-477.19042803614866
24,-699.7019539047202,-498.12641130614793
25,-694.314475566386,-519.1136197857559
26,-689.0154073373936,-540.2276375775691
27,-683.7349557327444,-561.2898173776921
28,-678.494970269829,-582.240327652311
29,-673.3000418590697,-603.3159207020653
30,-668.1615120353763,-624.4276961046271
31,-663.0446214306427,-645.5823589250795
32,-657.9785700705107,-666.7271175467758
33,-652.9317012719065,-687.8844541211729
34,-647.9195174882578,-708.9938678101753
35,-642.9807604093864,-730.184762844583
36,-638.0560969900667,-751.3796704605338
37,-633.1619908340423,-772.5102114509791
38,-628.301926990317,-793.5061271357699
39,-623.4738500159601,-814.7309627245413
40,-618.6857419221079,-836.1207804209553
41,-613.925326698589,-857.5571734086261
42,-609.1996123040454,-878.8656507784035
43,-604.4946983793744,-900.0026564786094
44,-599.8332790235787,-921.1633765752194
45,-595.2060833216234,-942.5057736678864
46,-590.5991478954144,-964.1180522356299
47,-586.0182165345716,-985.4429538341356
48,-581.4747620285733,-1006.9341503402102
49,-576.9470898187242,-1028.453623543959
50,-572.4571929448795,-1049.9173306048615
51,-567.9819603356059,-1071.4654170250287
52,-563.5442935751462,-1092.7639786269283
53,-559.1356817404452,-1114.0158433002653
54,-554.755593742247,-1135.2888475292712
55,-550.3911159135945,-1156.884848234593
56,-546.0608802797714,-1178.5390503313392
57,-541.74573526176,-1200.0520561190206
58,-537.4573167300224,-1221.5145902855438
59,-533.2068177660242,-1243.136969594285
60,-528.9821739971718,-1264.9358230010257
61,-524.7869370810757,-1286.4611606919789
62,-520.6164972761941,-1308.0544466050342
63,-516.459978716105,-1329.8312746623415
64,-512.3304893665457,-1351.5160613702028
65,-508.2204501969122,-1373.1348412397201
66,-504.1335678564096,-1394.6941411230946
67,-500.06044871507925,-1416.5652835180517
68,-496.02819296216387,-1438.3519916075747
69,-492.0238431612349,-1460.0059694256051
70,-488.02888466191325,-1481.3769218681846
71,-484.0585133303245,-1503.0658816227224
72,-480.1103819372015,-1524.7051519487286
73,-476.1834921814098,-1546.4660086999647
74,-472.2752087361715,-1568.4201557760825
75,-468.3854903139285,-1590.0980555740534
76,-464.52584201645544,-1611.9195900499471
77,-460.6713994287914,-1633.8292518403614
78,-456.85467268375584,-1655.3294002012117
79,-453.05917244971215,-1676.8384199716384
80,-449.2825345515511,-1698.3633018711698
81,-445.51704567928095,-1720.45641363709
82,-441.76934160868524,-1743.0357177917613
83,-438.0437423682277,-1765.660990174627
84,-434.3286395121139,-1787.263277236023
85,-430.6518055838492,-1808.960489737161
86,-426.99084874812326,-1830.9071874812362
87,-423.3506322753986,-1852.5051984043675
88,-419.7259288937055,-1874.4180452464498
89,-416.1190044047618,-1896.6118744601263
90,-412.52905432263327,-1918.8978495557676
91,-408.95255627212896,-1941.0763988814433
92,-405.393539458088,-1963.2722445034888
93,-401.8682687928281,-1984.9067233951064
94,-398.34991947805463,-2006.912279876764
95,-394.8543306254959,-2029.3786798581714
96,-391.3754830158766,-2051.4450080529787
97,-387.917852162355,-2072.476462451683
98,-384.48226764006193,-2093.4838036106084
99,-381.06671572595684,-2115.449461833574
100,-377.6693527073555,-2137.3474775745417
101,-374.2901001904538,-2159.3233024404617
102,-370.937245091414,-2181.1770245144726
103,-367.594493724185,-2203.0419059792766
104,-364.267670505644,-2225.1202458796324
105,-360.9635990019942,-2247.1266782890307
106,-357.6698377483558,-2269.107316906913
107,-354.3999646983024,-2291.2223262878833
108,-351.1493338670809,-2313.162845953426
109,-347.91109458806824,-2335.329962591233
110,-344.6953550644768,-2357.419345753093
111,-341.4970588358727,-2379.5738070175867
112,-338.31137817984063,-2401.970347603841
113,-335.14271714511005,-2424.5521370081697
114,-331.9936120876001,-2446.8966814282467
115,-328.85657954984015,-2469.039363431337
116,-325.7366489911293,-2491.084721741441
117,-322.63146998390846,-2513.283511865244
118,-319.54689493086426,-2535.3234185751644
119,-316.4763062730983,-2557.281009439437
120,-313.42014499231857,-2579.1113680602866
121,-310.38225750814377,-2601.3249200274004
122,-307.3605010413527,-2623.5337212913437
123,-304.3640625273845,-2645.449913433753
124,-301.3756700318877,-2667.525838762929
125,-298.40603473608815,-2689.477398292569
126,-295.45079367673236,-2711.7178611843847
127,-292.5086265885918,-2733.680386341701
128,-289.5900838994173,-2755.581092242908
129,-286.6863099879097,-2777.7896854945575
130,-283.79669887353157,-2799.897092228057
131,-280.9248101400161,-2821.872275926289
132,-278.0708930010891,-2843.811265147873
133,-275.22728423463013,-2865.8800064247334
134,-272.4014023513661,-2888.2826618450345
135,-269.5939557295578,-2910.464084878564
136,-266.79609710813054,-2932.7215962550254
137,-264.01035414439104,-2954.8332975523663
138,-261.24355282608053,-2976.728608800273
139,-258.50466448641976,-2998.515259332431
140,-255.77480091072582,-3020.6168445399962
141,-253.06063057980325,-3042.498364149127
142,-250.35833216441458,-3065.5641219351673
143,-247.66726346839832,-3088.6378243606305
144,-244.99186480298792,-3110.7849952167016
145,-242.33111112328842,-3132.9489233140484
146,-239.6893141554992,-3155.083192971011
147,-237.05897266097506,-3177.2509284233092
148,-234.44662463883478,-3199.384211459488
149,-231.84936375766912,-3220.596704006486
150,-229.26884034767315,-3241.7510953513556
151,-226.7061781270506,-3263.98602034722
152,-224.15757412014838,-3286.290518587455
153,-221.62834308835224,-3308.3239338317653
154,-219.1069427476195,-3330.5536017720005
155,-216.5969991873803,-3352.9200885569444
156,-214.10326435599254,-3375.0783203747123
157,-211.62315820994613,-3397.326014956052
158,-209.1595744015652,-3419.8419289730373
159,-206.713109387711,-3442.093846288044
160,-204.27399514735154,-3464.5847396121826
161,-201.85193750218897,-3486.484494378499
162,-199.45077717799947,-3508.602933490067
163,-197.06339037952702,-3530.788959132973
164,-194.6933509922862,-3551.7061657918384
165,-192.33636861397108,-3572.284379759454
166,-189.99767299026516,-3594.5405816798448
167,-187.66918144075836,-3616.713022026117
168,-185.3606968790701,-3638.6725020317244
169,-183.0628219682387,-3660.3483477843693
170,-180.77560167670683,-3682.143584159494
171,-178.50923381415598,-3704.570830973331
172,-176.2510038315174,-3727.876917284797
173,-174.00731067333285,-3751.212345697044
174,-171.77334949521273,-3773.0524658241775
175,-169.55541621832432,-3795.3078019669047
176,-167.35643708868187,-3817.828263692383
177,-165.17025129256055,-3840.0289330642554
178,-162.99529933506616,-3862.1214131643646
179,-160.8359898570619,-3882.9599989221897
180,-158.68586937896734,-3904.0145564466366
181,-156.55112690788255,-3925.995532960107
182,-154.43017897079218,-3948.0110861744615
183,-152.32371558527436,-3970.2364102652646
184,-150.22802645266037,-3992.498028101283
185,-148.15130872865106,-4014.6802052565035
186,-146.0848707131017,-4036.818912297953
187,-144.03754250971164,-4059.5484823121224
188,-142.0045904087826,-4082.2025808839826
189,-139.98359587070613,-4103.95210622903
190,-137.9741724395138,-4126.079913665133
191,-135.98203785082544,-4148.232487164903
192,-134.00646903347317,-4170.425147046393
193,-132.04631746932293,-4192.522877816868
194,-130.0990167790736,-4214.658564349986
195,-128.16577561564904,-4237.031836135604
196,-126.24605530321809,-4259.61743764265
197,-124.33836328972767,-4281.573823522776
198,-122.44130532181326,-4304.102389860142
199,-120.55635825438388,-4326.227515545732
200,-118.68461698613838,-4348.557664473017
201,-116.82770087422419,-4370.9173779903795
202,-114.98467303584094,-4393.450188829738
203,-113.15410043695861,-4415.414241051592
204,-111.34071622822749,-4437.244923675025
205,-109.54477719965381,-4458.912612500251
206,-107.756631548796,-4480.890295709774
207,-105.99210307570512,-4502.974820436095
208,-104.23914037772919,-4524.909188209334
209,-102.49975944451101,-4546.521723356855
210,-100.76781318667518,-4568.085885369917
211,-99.05337240270897,-4589.689501987945
212,-97.3552273216827,-4611.927895876463
213,-95.66990212909512,-4634.161268856726
214,-93.99777211325873,-4656.488994193263
215,-92.33541319042148,-4678.6935392005835
216,-90.6891382140643,-4700.787030461128
217,-89.058232541263,-4724.317372844496
218,-87.44161539775119,-4747.494150709244
219,-85.83535987793196,-4769.57620328234
220,-84.24327917044182,-4791.757257317193
221,-82.66782651633478,-4814.167944389279
222,-81.101978056677,-4836.497448823124
223,-79.54698851973124,-4858.81929020345
224,-78.00988136932675,-4880.59463397105
225,-76.49574140082608,-4902.38583534566
226,-74.98676217166324,-4924.329851521761
227,-73.49758973969129,-4946.314236806822
228,-72.01449218449066,-4968.472516230599
229,-70.55326404498145,-4990.472357503255
230,-69.09989393211161,-5012.591828040138
231,-67.66781462299342,-5034.623197428649
232,-66.24331111387663,-5058.370898603636
233,-64.83452460597424,-5081.656223847938
234,-63.439534483307035,-5103.591910517716
235,-62.06056353107713,-5125.201019413304
236,-60.69529242596932,-5147.412142869027
237,-59.34274987909769,-5169.367690318439
238,-58.004760718987406,-5191.2489283417235
239,-56.68951862664287,-5213.984301920747
240,-55.38325036347826,-5236.8972227195045
241,-54.09122208719803,-5259.043674208515
242,-52.81670291280134,-5281.72497897048
243,-51.55529035242851,-5303.746609809634
244,-50.308337194746606,-5325.89855779917
245,-49.07749899551059,-5348.441423955315
246,-47.8615650980224,-5370.86719997396
247,-46.656105707696135,-5393.467919908115
248,-45.46323540851879,-5416.136587568384
249,-44.28551686063859,-5438.334195683477
250,-43.12241581021156,-5460.484225277731
251,-41.97441087167997,-5482.544788121886
252,-40.849451182968075,-5504.701396521297
253,-39.73370761507508,-5526.917400962906
254,-38.636478989895956,-5548.013957581075
255,-37.55608386274603,-5569.828573207895
256,-36.484786820695696,-5591.679243013961
257,-35.43125287797361,-5613.7642375910655
258,-34.392505020825276,-5635.392712689703
259,-33.3704385638657,-5657.915437820193
260,-32.354476506612265,-5680.312038608361
261,-31.365105711539037,-5702.3038688306115
262,-30.38604826061053,-5726.308266547858
263,-29.425058777902997,-5750.2367595752585
264,-28.475382660805487,-5772.516569535423
265,-27.54046741820273,-5794.4637295142165
266,-26.626942021945048,-5816.733415591356
267,-25.72620773011372,-5838.1339307616
268,-24.843770497542756,-5860.5349802673445
269,-23.973342709451096,-5884.145963250718
270,-23.121148821501585,-5907.605368487129
271,-22.28376151641792,-5929.812909255503
272,-21.46173728697304,-5952.541365209327
273,-20.657449717867372,-5974.811420632992
274,-19.871045738528416,-5997.255606600258
275,-19.09849030218877,-6019.954490941309
276,-18.341087153636614,-6041.833039387944
277,-17.60487500211,-6063.847762653779
278,-16.88533709423482,-6085.9923772928305
279,-16.17851001476604,-6108.071483681328
280,-15.495157637236254,-6129.905649507884
281,-14.825466985773438,-6152.366963609122
282,-14.174475680931302,-6174.759951388056
283,-13.534604636273663,-6196.364273655461
284,-12.913862817078872,-6220.043664587894
285,-12.308928834595214,-6242.970935484627
286,-11.720637652951474,-6264.563349156699
287,-11.147375635338769,-6286.81679655076
288,-10.600332585222624,-6309.401488917938
289,-10.06131341459534,-6331.294344873808
290,-9.54715479971285,-6353.937278262514
291,-9.056947647690642,-6375.913556212967
292,-8.579822719236724,-6396.446200311242
293,-8.121761677326369,-6417.768494422082
294,-7.685360684594208,-6440.100645553146
295,-7.264364357471756,-6462.801791634061
296,-6.858008452698506,-6485.705020739173
297,-6.477207031981358,-6507.786872105789
298,-6.111599303360983,-6529.646757207811
299,-5.764560092987701,-6553.685799785191
300,-5.433114935265145,-6577.346493412158
301,-5.113341970464695,-6599.347519596398
302,-4.826478442982626,-6621.8746138287825
303,-4.556377122325763,-6644.33462371357
304,-4.3091947914253765,-6666.4625572463265
305,-4.074530009980641,-6688.839186932077
306,-3.8657111638169472,-6711.3646949814865
307,-3.6738624151235872,-6733.905058096454
308,-3.498522646148651,-6756.163645866851
309,-3.3527222059652577,-6777.82924819336
310,-3.2218919788841522,-6799.704321460449
311,-3.10937441883889,-6821.711348185432
312,-3.0231892915465797,-6843.733388950932
313,-2.954891518122715,-6865.885098085098
314,-2.9117624700953475,-6891.814309366338
315,-2.8726470577861183,-6917.68721006281
316,-2.861116360868984,-6940.003049813444
317,-2.8695459268314853,-6962.575512937852
318,-2.9003396350180783,-6984.048250758497
319,-2.9381991294224936,-7006.344621906232
320,-3.012636973230521,-7028.3645036042435
321,-3.1074455991418763,-7050.498466443678
322,-3.2238366241244667,-7070.770089631667
323,-3.364928295497045,-7091.006253847794
324,-3.5306544909192117,-7113.096663784701
325,-3.715319844572925,-7135.926055525255
326,-3.9198473812785797,-7158.5390808531665
327,-4.138764309673299,-7180.458839447063
328,-4.38953766847451,-7203.156204456929
329,-4.668696627591409,-7226.155661006225
330,-4.984590630136701,-7249.593835516425
331,-5.317294577607164,-7270.785797922523
332,-5.67295748122158,-7292.664161903609
333,-6.06311789890092,-7314.829688160564
334,-6.465218734949396,-7337.009495063045
335,-6.892397764382487,-7358.880579947028
336,-7.344590833982444,-7380.827463633323
337,-7.818848068355784,-7403.659763527336
338,-8.317993409974385,-7426.310347812658
339,-8.848068134423876,-7449.039967303048
340,-9.393318830314321,-7471.427803342172
341,-9.964223167033289,-7493.44402162917
342,-10.565529985500895,-7514.525966919609
343,-11.195541636560712,-7536.476251164975
344,-11.836335963514422,-7559.300142519933
345,-12.49649435162005,-7582.8773229420185
346,-13.175157287076424,-7604.869404057565
347,-13.887174793185729,-7625.779177574557
348,-14.629369252353037,-7647.690926838841
349,-15.400456557840677,-7669.496818010986
350,-16.196177923459892,-7691.040040913795
351,-17.0154741931593,-7713.3705995612545
352,-17.867087589471772,-7734.868268506485
353,-18.75481628524856,-7755.568135888898
354,-19.659048373880843,-7777.633232836553
355,-20.586460282854297,-7801.199035831087
356,-21.54874831410664,-7822.716046784713
357,-22.534420592525613,-7844.836544699327
358,-23.535752042939954,-7866.321231296111
359,-24.571399526541406,-7887.82150942547
360,-25.644564627415527,-7908.849236700567
361,-26.73274969208328,-7930.54535006854
362,-27.833065322712038,-7952.345243129937
363,-28.97766930963528,-7975.139544608945
364,-30.156315899790435,-7997.143244846084
365,-31.353681842928474,-8018.586963799084
366,-32.59066045176335,-8040.100624596584
367,-33.83689785105671,-8064.137476419099
368,-35.112834556918735,-8087.458753108163
369,-36.41801857447101,-8108.697897836333
370,-37.7539227294918,-8129.944625070493
371,-39.11733810312203,-8151.695674120856
372,-40.51032671418111,-8173.783668978023
373,-41.931938417690596,-8195.813955391233
374,-43.38650927214881,-8216.436435350508
375,-44.87465986027119,-8237.13621622487
376,-46.382747558806024,-8258.623326466302
377,-47.91752854507045,-8279.182250969636
378,-49.48925955632465,-8301.666299675475
379,-51.08590462583695,-8323.203708559857
380,-52.72082340213942,-8346.034299419203
381,-54.38705378294694,-8367.864148482447
382,-56.072213497889244,-8388.728005597775
383,-57.790694435395245,-8408.11718347692
384,-59.548159216701016,-8430.34619436774
385,-61.31992158133401,-8451.876634799468
386,-63.13199802297536,-8473.767721938144
387,-64.98338132326931,-8494.343151623209
388,-66.84865342106126,-8515.783446262823
389,-68.73460192616936,-8539.188925802126
390,-70.65778291585842,-8560.507351046486
391,-72.5926958065255,-8579.678363432002
392,-74.56179014286862,-8601.213420304877
393,-76.54557167901133,-8624.181541925762
394,-78.56153365298245,-8645.878468347422
395,-80.59549028604111,-8666.567178529105
396,-82.65463182775385,-8689.863384776225
397,-84.75597703045388,-8710.811746116146
398,-86.91111859359886,-8732.887802099052
399,-89.09342722117218,-8755.088193127827
400,-91.29330202322056,-8777.91708289925
401,-93.52668989867003,-8798.088263981626
402,-95.78468387456574,-8818.917768153886
403,-98.06421012689371,-8838.42215954262
404,-100.35760284327237,-8861.444143407512
405,-102.68020473150726,-8885.712468660553
406,-105.0283112542371,-8906.935977571935
407,-107.41073431803714,-8928.531907358032
408,-109.81279014788798,-8950.093739119358
409,-112.25356336072467,-8971.544759179873
410,-114.70706186500762,-8995.810027271393
411,-117.18993156969303,-9018.876064054144
412,-119.71113004822779,-9041.117876006174
413,-122.28495695368575,-9060.65734374529
414,-124.8745793593897,-9081.182428052765
415,-127.48673858001165,-9100.534547684016
416,-130.1296856476607,-9121.436382435262
417,-132.7966702928555,-9143.412330388848
418,-135.46812976206465,-9162.906672889425
419,-138.18782734971418,-9182.724386492977
420,-140.93829021171072,-9202.641008283652
421,-143.72244332867305,-9225.147200651176
422,-146.51203332600332,-9246.683750008873
423,-149.33826130932536,-9267.616242831165
424,-152.19246980717693,-9289.005378470349
425,-155.08100599291978,-9310.893479251768
426,-157.98965891769703,-9332.646482129523
427,-160.9308357294819,-9355.945006604714
428,-163.89601529139028,-9379.599608954857
429,-166.90722015795822,-9401.00075173931
430,-169.93078909587766,-9423.028987914848
431,-172.98268922817894,-9444.480265287275
432,-176.05242308882904,-9468.123317653663
433,-179.15412291240554,-9489.754784253135
434,-182.274710030951,-9511.895008157357
435,-185.4215473967491,-9536.125888736744
436,-188.6170149126502,-9556.921612169885
437,-191.8598663274532,-9576.536126208899
438,-195.11062009186364,-9599.696860967495
439,-198.36143805392837,-9618.424316808057
440,-201.64552811813982,-9640.716492575419
441,-204.9422388708517,-9661.514184163476
442,-208.2631039326412,-9679.75231619901
443,-211.62705357909758,-9700.321008597151
444,-215.01852629824018,-9720.15308079822
445,-218.47140312016583,-9739.488839146623
446,-221.8738910291623,-9760.055684765743
447,-225.34276658357336,-9781.349598645058
448,-228.84512868286023,-9803.67704987456
449,-232.38158055718586,-9824.338339814043
450,-235.93593032597707,-9845.163665236149
451,-239.5453716140258,-9866.600102463563
452,-243.2203332869884,-9889.530917873315
453,-246.86755580638973,-9907.7286066112
454,-250.5338763800713,-9929.411165933416
455,-254.20020623186903,-9952.063872476981
456,-257.9154416829492,-9972.415764008416
457,-261.67277282496207,-9995.856149230909
458,-265.4722345308088,-10015.765237709624
459,-269.27814515767807,-10036.800551688008
460,-273.1244306412259,-10055.810472257785
461,-277.0051046301792,-10080.649133652332
462,-280.86677889128805,-10099.226527372142
463,-284.7663347475435,-10118.983434040972
464,-288.7299186770899,-10145.085674081813
465,-292.69427049241847,-10170.369398046634
466,-296.71720089101655,-10188.407263466099
467,-300.7755106998577,-10210.705278037523
468,-304.91655501110006,-10233.295837028243
469,-309.05398942775844,-10248.602106972656
470,-313.1485915541449,-10267.82958284329
471,-317.3058051779202,-10291.45238434727
