N,lnPi(N),U(N)
0,-31.75797398855951,0.0
1,-28.353666635811233,-0.0004616825979160567
2,-25.634596828558237,-0.06458531461203836
3,-23.313298304416158,-0.19194490027547856
4,-21.272503843025575,-0.38261359046015087
5,-19.446678347405076,-0.635900699383996
6,-17.79531018740595,-0.9531839726837434
7,-16.28965362335119,-1.3335085477194575
8,-14.910479855459627,-1.7757523039508858
9,-13.641320187619574,-2.282433249847102
10,-12.468625701238238,-2.8511075590716217
11,-11.384226093368088,-3.4808669307266293
12,-10.379970570885003,-4.172634820420142
13,-9.447495049373671,-4.927837988163393
14,-8.581131920132368,-5.749240811305339
15,-7.776932545884509,-6.62352471638113
16,-7.0285918860356125,-7.565343566546067
17,-6.333402360200297,-8.567829238210336
18,-5.687788968879198,-9.632863669708694
19,-5.089794855394843,-10.760157203276714
20,-4.535299851287828,-11.947667013876522
21,-4.0221450254018976,-13.195274155315161
22,-3.547820880023142,-14.50746134280545
23,-3.110054770335772,-15.880164762824974
24,-2.7080424494750055,-17.31435530485914
25,-2.340287308127074,-18.80517262995056
26,-2.0038930006948803,-20.35250333111664
27,-1.6974108349323842,-21.960911137652296
28,-1.4198857500571265,-23.62621791033279
29,-1.171044035874071,-25.359347069545162
30,-0.9503795616295321,-27.146972838603762
31,-0.7548890783759603,-28.99288983264735
32,-0.5833188066334642,-30.908927526439392
33,-0.4355011952429635,-32.87444689931689
34,-0.3111772096886334,-34.91141667254025
35,-0.2085873737980961,-37.005861313918714
36,-0.12721590252260384,-39.15468675718688
37,-0.06600897435073705,-41.3668355584813
38,-0.024336257903570413,-43.62706744760207
39,-0.0029320458165678076,-45.952597280594986
40,0.0,-48.3425500722813
41,-0.014868386848764459,-50.78385614405369
42,-0.04640449053583806,-53.27956536323941
43,-0.0948228241936313,-55.83927939396399
44,-0.15840194442618882,-58.451916091275045
45,-0.23936531459932198,-61.11721863783045
46,-0.3347777825018632,-63.85151194819862
47,-0.44509498226263444,-66.64634531264882
48,-0.5693976063046224,-69.49138887999548
49,-0.7085285454000001,-72.3879424195437
50,-0.8621844532523011,-75.36197612793896
51,-1.0287509750629584,-78.3755033621385
52,-1.2072457248537098,-81.44047090216112
53,-1.3983639012522886,-84.58151083099402
54,-1.602939196052759,-87.76117222968826
55,-1.8193249655857997,-91.00839010531313
56,-2.0474615190061094,-94.30450093271511
57,-2.2871997617590454,-97.6605567622536
58,-2.5367284053328056,-101.08112293327142
59,-2.797898557909985,-104.56070782371246
60,-3.0701137016184994,-108.08291801141843
61,-3.3524067060349134,-111.67066696842187
62,-3.6444890597153403,-115.30117540217539
63,-3.9475643063010075,-118.97713819587518
64,-4.259724238391314,-122.70746570923178
65,-4.581249323649853,-126.52148908656503
66,-4.910901381317938,-130.3808065013824
67,-5.250108080631407,-134.28881997711156
68,-5.597789918777658,-138.2513032665353
69,-5.9550577980717465,-142.2709882586603
70,-6.320465501330323,-146.3387756762732
71,-6.694078218261365,-150.47714611054445
72,-7.0757345781571805,-154.6618784521612
73,-7.465903306454233,-158.89125392398486
74,-7.863742101342287,-163.19145140759733
75,-8.268778134397216,-167.55083246454143
76,-8.682108322826696,-171.9699262693384
77,-9.101512027135538,-176.4341950717826
78,-9.529243978049166,-180.93335316623646
79,-9.96371502257507,-185.48025527741981
80,-10.404058276416784,-190.08951165029112
81,-10.851826246008098,-194.74495308100887
82,-11.307661308069115,-199.46353590999
83,-11.769547174342694,-204.21484571875314
84,-12.238524950542487,-209.00792107037782
85,-12.714633064643284,-213.8689933314779
86,-13.19439551902337,-218.78488000005754
87,-13.682541014435756,-223.75954944975865
88,-14.176096337810765,-228.7728753195053
89,-14.67649798817893,-233.8344766755813
90,-15.182730705719528,-238.9760859233459
91,-15.693262993156715,-244.1596878127647
92,-16.209477780468678,-249.39226541101687
93,-16.7317894046097,-254.64958802062958
94,-17.260052757652385,-259.9801791680875
95,-17.79404669493075,-265.32273994862317
96,-18.334005277306826,-270.7519705054965
97,-18.87925702241299,-276.25260803206993
98,-19.429919497881528,-281.79462294913077
99,-19.983970964691565,-287.37591693725074
100,-20.54393483223504,-293.0308112606645
101,-21.108351754693185,-298.73880269421073
102,-21.677778497710786,-304.43431717762854
103,-22.253941323165055,-310.2220235143179
104,-22.83343307266619,-316.07034677556135
105,-23.41886384982391,-321.9688721863299
106,-24.00741146117543,-327.9197725630223
107,-24.6009417567617,-333.91207459309936
108,-25.199063844812365,-339.9614309731998
109,-25.801100092316133,-346.05731666738455
110,-26.407627671888644,-352.2023488941758
111,-27.01867530130587,-358.4192365222788
112,-27.634362361849213,-364.69324028811553
113,-28.255081984592067,-370.99195233001785
114,-28.879330327511173,-377.3431484157767
115,-29.507833319898015,-383.7103736725694
116,-30.140708991871723,-390.1447692109962
117,-30.778346630484894,-396.6489058515615
118,-31.420240016969334,-403.17718597397146
119,-32.066030680984966,-409.7264702477161
120,-32.71616580223388,-416.36929529190604
121,-33.37119209712191,-423.021929593168
122,-34.02809244996245,-429.7453086293383
123,-34.69038608592661,-436.57347877438474
124,-35.35634796398693,-443.39230375052387
125,-36.026648294130474,-450.27584699604756
126,-36.699715845163155,-457.2088816130339
127,-37.37640063058132,-464.23295025612333
128,-38.05709380186303,-471.2943963044665
129,-38.740699354346305,-478.3889327217974
130,-39.429273641865144,-485.46988686715076
131,-40.119971548985184,-492.63573206443283
132,-40.815353207322104,-499.93276618261035
133,-41.512395531381145,-507.22004750206196
134,-42.21617043533148,-514.5274968715413
135,-42.92224401185628,-521.86247767781
136,-43.632598248438796,-529.197410308739
137,-44.34698188056887,-536.6474598353826
138,-45.06236935917015,-544.1723439314076
139,-45.78342656424748,-551.7280422680739
140,-46.50824589942939,-559.3312495307779
141,-47.23549706879228,-566.9639971295469
142,-47.9662036748833,-574.6728742163176
143,-48.70106396076787,-582.3832344712032
144,-49.43836771383471,-590.1672845885192
145,-50.17913704510029,-598.0476733975102
146,-50.92323760788129,-605.9379116878016
147,-51.671032372712,-613.8858098803571
148,-52.42269144753524,-621.8365665076905
149,-53.17700808802351,-629.8904766277814
150,-53.93454843300819,-638.0116062920347
151,-54.69508552502444,-646.1862974454726
152,-55.45866428076616,-654.406899938352
153,-56.225395005758706,-662.66974892928
154,-56.99551988445166,-670.9347478168092
155,-57.769466187404326,-679.2626609941626
156,-58.54815118321649,-687.6750893816072
157,-59.32855157155524,-696.118587793798
158,-60.11270064469859,-704.6138743724498
159,-60.89913986797254,-713.1634635470391
160,-61.68879951514444,-721.7198208071683
161,-62.4824186186421,-730.3268086063224
162,-63.27867535676306,-738.992019049546
163,-64.07867005381989,-747.6881300990514
164,-64.8812826187674,-756.4274393385888
165,-65.6879835450462,-765.2654869257152
166,-66.49887661465937,-774.1467653216117
167,-67.3107741608088,-783.0920738856779
168,-68.12688120366744,-792.072235678729
169,-68.94657466323306,-801.0660483037135
170,-69.76879908095371,-810.1370144933285
171,-70.5943386958643,-819.2562208142198
172,-71.42267993141198,-828.4346311290328
173,-72.25441658216494,-837.6777921879831
174,-73.09056952545669,-846.9046536343633
175,-73.92934555996234,-856.2537509096466
176,-74.77169735736553,-865.661086273449
177,-75.6171344427621,-875.0854496155109
178,-76.46500145785724,-884.5810077607489
179,-77.31621926529226,-894.1371659908768
180,-78.17185340569426,-903.7049955259005
181,-79.02941436528747,-913.3691234356188
182,-79.89107645243145,-923.0668574861852
183,-80.75460633940651,-932.7788646906447
184,-81.6233098116679,-942.0719366660531
185,-82.49623980430026,-951.8766201103483
186,-83.37109476002652,-961.735233172351
187,-84.24976580866222,-971.6455410401101
188,-85.12969870754874,-981.6198470996638
189,-86.01648485014803,-991.6288168529862
190,-86.90581150286675,-1001.7322608755177
191,-87.7980900947082,-1011.8648983155942
192,-88.69501870961024,-1022.0260015527567
193,-89.5942589187586,-1032.2645699687562
194,-90.49669331184273,-1042.4941998723634
195,-91.4025109391369,-1052.8273605370098
196,-92.31022888042847,-1063.1794530385127
197,-93.22289323156308,-1073.6043754653226
198,-94.13943885504015,-1084.0964670110543
199,-95.05802899747786,-1094.6250188709614
200,-95.98161698885966,-1105.2452262922648
201,-96.90803054185176,-1115.870911828434
202,-97.83745328111839,-1126.5815061076216
203,-98.77205175310469,-1137.3004288392742
204,-99.70891528345831,-1148.046439112527
205,-100.64956379863763,-1158.7906954203286
206,-101.59284102614482,-1169.7326290716192
207,-102.54157734250443,-1180.7124236336754
208,-103.49315629771607,-1191.7264742101
209,-104.44947038174743,-1202.7263824213994
210,-105.40743441366877,-1213.7846320079557
211,-106.37076938439611,-1224.9850990459952
212,-107.33869160273231,-1236.1536365254258
213,-108.30934580109181,-1247.4275275763794
214,-109.28369703125743,-1258.7725518731827
215,-110.26192300161148,-1270.143926814742
216,-111.24399027081675,-1281.4995492492292
217,-112.23119848818943,-1292.9670346497387
218,-113.22184737148095,-1304.4952016226978
219,-114.21617404944777,-1316.093149002102
220,-115.21461120554595,-1327.7764466843123
221,-116.21766742577144,-1339.4552899605542
222,-117.22560466577526,-1351.2426412808074
223,-118.23640789746212,-1363.0608631015746
224,-119.25285332043725,-1374.8809024146474
225,-120.27306609779059,-1386.7224166897697
226,-121.29660267532415,-1398.7040164997711
227,-122.32354496248232,-1410.7429907644137
228,-123.35525501319711,-1422.8855376694285
229,-124.39166726798635,-1435.0020734158159
230,-125.43252784073283,-1447.135097838044
231,-126.47873336832583,-1459.3120859838887
232,-127.5276951077856,-1471.6696899312033
233,-128.58250883295693,-1484.0877606972815
234,-129.64231621145328,-1496.4633526854732
235,-130.70654584288397,-1508.9295321352035
236,-131.77467421250114,-1521.3948348302174
237,-132.8467796670206,-1534.0245350680257
238,-133.92474922492494,-1546.5975797348406
239,-135.0072193016735,-1559.306464320431
240,-136.0941282823055,-1572.0458027521468
241,-137.18789516773415,-1584.8123886550368
242,-138.28526448465811,-1597.9945413365097
243,-139.3871138716573,-1610.858177443402
244,-140.49371058589614,-1623.8362523466858
245,-141.60533938512128,-1636.7792060541526
246,-142.72128687914676,-1649.8472348517816
247,-143.84496382781208,-1662.9265612540423
248,-144.97451244366528,-1676.174125789567
249,-146.108178420202,-1689.4241422313205
250,-147.2492313660465,-1702.7263480700542
251,-148.39386866475468,-1716.1806855497641
252,-149.54495875790133,-1729.6240956538202
253,-150.69969610805506,-1743.1369713266952
254,-151.86031518067387,-1756.673967834352
255,-153.0275984897843,-1770.3014195827936
256,-154.2015445965622,-1784.014503004615
257,-155.37962964203035,-1797.7583616719367
258,-156.56503810118807,-1811.5449482827055
259,-157.75596939803248,-1825.4320332352104
260,-158.9509450453687,-1839.246454611654
261,-160.1536222519193,-1853.2487530900462
262,-161.36279018163745,-1867.4022567574928
263,-162.5767352365881,-1881.5641938403492
264,-163.79809462919656,-1895.686150242757
265,-165.02694951205297,-1910.1448916863662
266,-166.25936996295198,-1924.44913762276
267,-167.49978220357363,-1938.7216737244867
268,-168.7466476043707,-1953.068266614612
269,-170.00060976330568,-1967.5640488655026
270,-171.26211370573046,-1982.0183622131974
271,-172.52855027398977,-1996.742013737536
272,-173.80336143624396,-2011.2895317582086
273,-175.0849148807412,-2026.028308119445
274,-176.37263167573923,-2040.7833290302042
275,-177.66728437777616,-2055.5704218213523
276,-178.97107480791172,-2070.4259898549867
277,-180.28090647235535,-2085.323284043672
278,-181.59812581454628,-2100.3760584867405
279,-182.92110566293368,-2115.5077553516
280,-184.25497688063496,-2130.7797286304967
281,-185.59609756808712,-2146.096903772635
282,-186.94325226546502,-2161.3098770036904
283,-188.29819843902766,-2176.644781955002
284,-189.659852351723,-2192.125377274696
285,-191.0301750210437,-2207.766078258131
286,-192.41070937840684,-2223.2637380434244
287,-193.7998426940203,-2239.001178616888
288,-195.19546811438886,-2254.698170046389
289,-196.5985490743225,-2270.3767772214223
290,-198.0092192092199,-2286.11128160738
291,-199.4302786741618,-2301.8354829159807
292,-200.85933269156368,-2317.921311010821
293,-202.29674326957536,-2333.920288070149
294,-203.74504645018408,-2350.014421184986
295,-205.20190317837168,-2366.144137103684
296,-206.66818551179136,-2382.383599213957
297,-208.14264458761264,-2398.6302499413528
298,-209.62470971658686,-2415.0207507664454
299,-211.11736771015742,-2431.302528626013
300,-212.61992460871429,-2447.807805782192
301,-214.13368212836474,-2464.138638815084
302,-215.6552339129677,-2480.6808100683347
303,-217.18732089457347,-2497.1832307819654
304,-218.72997226126486,-2513.8711062947264
305,-220.28221135168968,-2530.60939506232
306,-221.84704498700876,-2547.42122784571
307,-223.41757444003272,-2564.460948588949
308,-225.00084240386792,-2581.2991331217645
309,-226.59460697198054,-2598.213166672677
310,-228.2018251305814,-2615.061265434012
311,-229.81972594570178,-2632.196564234024
312,-231.4462178379589,-2649.327814455889
313,-233.0847831318307,-2666.608413146312
314,-234.7360460060729,-2683.8801224928643
315,-236.39868141156202,-2701.254980186556
316,-238.07461016866137,-2718.674905081096
317,-239.76305095538598,-2736.2078677881227
318,-241.45757453954693,-2753.740589862887
319,-243.1632656690131,-2771.273648805797
320,-244.88611422506935,-2789.150804851075
321,-246.6175047647318,-2806.916695603988
322,-248.3624764298306,-2824.6263790333805
323,-250.12275559701465,-2842.43478063791
324,-251.89968061203928,-2860.443274594777
325,-253.6842379031066,-2878.594339664243
326,-255.48649229332537,-2896.862926701688
327,-257.29469429689675,-2914.957640525622
328,-259.11749742943323,-2933.1392897536202
329,-260.9531838136657,-2951.4884670527035
330,-262.80392546173493,-2969.8353179793976
331,-264.67044679485633,-2988.3323407111616
332,-266.5493700315994,-3006.614041545465
333,-268.4418262436084,-3025.3919404079447
334,-270.34624919447185,-3043.798278307623
335,-272.26723953429774,-3062.1887091607073
336,-274.2070561365326,-3080.8788356912664
337,-276.16097607298946,-3099.7760563561073
338,-278.1255625950856,-3118.815756609588
339,-280.10877403337076,-3137.845785378111
340,-282.1062509913743,-3156.8100803645248
341,-284.11973159865414,-3175.9202007461818
342,-286.1489421362103,-3195.064469009086
343,-288.19351578888705,-3214.247568041857
344,-290.2539898782487,-3233.4822909974964
345,-292.32947126128846,-3252.7976343461223
346,-294.4249172826397,-3272.444408164137
347,-296.5355289846554,-3291.699893906219
348,-298.6597378103727,-3311.3875472995055
349,-300.80595541453795,-3331.2642036780485
350,-302.9655274391309,-3350.8778212817633
351,-305.1448127297406,-3370.29741364254
352,-307.34683844571794,-3389.506994172863
353,-309.55585380836385,-3409.1044337651447
354,-311.7866609226249,-3428.9244794631095
355,-314.0343535478097,-3448.8439692752095
356,-316.30022391114596,-3468.8272128415642
357,-318.58820852506807,-3488.693036324227
358,-320.8904543178943,-3508.9440861058906
359,-323.2137922503542,-3529.1504741088447
360,-325.55484978055654,-3549.438911799868
361,-327.92244014481315,-3569.623562263081
362,-330.3037902204959,-3589.7282586937135
363,-332.7111150675784,-3610.6701798322865
364,-335.1401900703023,-3630.697124849733
365,-337.58767847494045,-3650.982768633125
366,-340.05445113491095,-3671.330835523705
367,-342.5438309998626,-3692.1394369246896
368,-345.05312151509827,-3712.917005360093
369,-347.58919693313675,-3733.759779245742
370,-350.1444439792201,-3754.5867425419297
371,-352.7165825558395,-3775.2377648961487
372,-355.3076305808754,-3795.9168697139803
373,-357.9261692365536,-3816.9168545624552
374,-360.5704330780838,-3837.8266617182007
375,-363.23338797208874,-3858.99222067898
376,-365.92247010506986,-3880.3442229971515
377,-368.63532157899573,-3901.642204180645
378,-371.3632648199441,-3922.745175505256
379,-374.12148173093215,-3943.6018392517535
380,-376.90543822090314,-3964.8631170767744
381,-379.71404428876565,-3986.1835718177736
382,-382.54818185327196,-4006.875580864336
383,-385.3950121378612,-4028.359197323533
384,-388.2768823026748,-4049.588449577825
385,-391.18036494225436,-4071.0598528800433
386,-394.1169760828167,-4092.342728351843
387,-397.07286686990005,-4113.517677843552
388,-400.05874206707676,-4135.771781657465
389,-403.0669129107377,-4158.170602437727
390,-406.09848915527266,-4179.98741442303
391,-409.1615533784997,-4202.107101467639
392,-412.25678094049005,-4224.169352882831
393,-415.36878403075843,-4246.173471468259
394,-418.5141945930284,-4268.49134197506
395,-421.6911973722129,-4290.427571562814
396,-424.89370093676274,-4312.1893260641555
397,-428.12777465991104,-4334.8547981538895
398,-431.3945776908088,-4357.8574673650855
399,-434.6907804969225,-4378.264502322971
400,-438.01899227138966,-4401.0722316354195
401,-441.37178130708907,-4423.66088108758
402,-444.7502713634204,-4446.283328834017
403,-448.1571665495365,-4468.412504892399
404,-451.58642372494967,-4490.568628316457
405,-455.05055945610917,-4512.966785408008
406,-458.55674031067815,-4535.660965209292
407,-462.0891833750463,-4558.285784642115
408,-465.6487786444377,-4580.615457737942
409,-469.25399800405046,-4603.862995790642
410,-472.8856369870222,-4626.111695583776
411,-476.5615848318065,-4647.940787765843
412,-480.26602497474806,-4671.32733118279
413,-484.0184898050533,-4693.612395030135
414,-487.7805251502637,-4716.378141718606
415,-491.59509415929597,-4738.923631949159
416,-495.44008524536133,-4762.18845988946
417,-499.2950412452701,-4785.127596538927
418,-503.2117790941828,-4808.561946855355
419,-507.16399745998945,-4831.550190957571
420,-511.14671962824946,-4854.796696786022
