N,lnPi(N),U(N)
0,-409.1002990354996,0.0
1,-401.11303496287934,-10.348926228412893
2,-393.8241169964429,-20.51431064162898
3,-386.97532750627363,-30.502868427902285
4,-380.4190351683039,-40.37018120096036
5,-374.1125527181903,-50.02055832545739
6,-368.00003052954713,-59.55203074300516
7,-362.0707733805093,-68.947202723386
8,-356.2990875610126,-78.23197164236626
9,-350.6591772407052,-87.35503962007351
10,-345.1455108065486,-96.33754361391038
11,-339.7402047024507,-105.16170186310774
12,-334.44727238525746,-113.96162775014818
13,-329.2578802321749,-122.69949691392685
14,-324.15928362145314,-131.39199228785583
15,-319.14635725919766,-140.01591995417402
16,-314.2153659314847,-148.4909505345713
17,-309.35642605235887,-156.84304557798896
18,-304.56795810375803,-165.23417644461006
19,-299.84931889943624,-173.61999680902227
20,-295.19979930266726,-182.07254690650007
21,-290.61770516317097,-190.45019731664797
22,-286.09526264670393,-198.72101399128587
23,-281.6274071440653,-207.02774011655129
24,-277.2213881261134,-215.3056127699092
25,-272.86934379787016,-223.46060727553413
26,-268.567381994447,-231.67375877583981
27,-264.3182599427199,-239.89182386336324
28,-260.1193179676536,-248.0624435431455
29,-255.96874606557137,-256.15794017317967
30,-251.86280559662495,-264.22084597744833
31,-247.8074328375095,-272.32464875980077
32,-243.7964589180347,-280.5607059196627
33,-239.82431174179914,-288.7927609849139
34,-235.88997887176768,-296.90480578745337
35,-232.01035865753678,-305.09290523655363
36,-228.1652171815139,-313.1962538848311
37,-224.35963210315995,-321.3650199317781
38,-220.58180567168995,-329.48060353038454
39,-216.85224690177034,-337.6505565715779
40,-213.16637608172292,-345.73831007877743
41,-209.5163118485694,-353.9027258036949
42,-205.89743074085536,-362.0698380560716
43,-202.3146026928991,-370.3438024314746
44,-198.7699501608468,-378.50127651742514
45,-195.2666674224564,-386.762145837929
46,-191.79585352949024,-394.89570512631326
47,-188.35571437750767,-403.1358330947187
48,-184.95237949904416,-411.38900599810586
49,-181.58144639038906,-419.65159814931394
50,-178.24430693302435,-428.0022145654293
51,-174.94165677823244,-436.29265725186997
52,-171.6643554958192,-444.93517629738926
53,-168.4232541087802,-453.46621927971137
54,-165.21253396686126,-461.7499999328502
55,-162.03224978413093,-470.05402054917795
56,-158.88330312536687,-478.40203791789827
57,-155.7700321112832,-486.76923439047096
58,-152.68453606027913,-495.24838696918596
59,-149.62765272677558,-503.6919318457294
60,-146.6085881852452,-511.9643800207923
61,-143.62104184283936,-520.2124894251829
62,-140.66331852569118,-528.6862546375269
63,-137.73159514428778,-537.2287318815361
64,-134.84112411044902,-545.740488691692
65,-131.96781711654938,-554.3032583129461
66,-129.12647490502792,-562.8861257218377
67,-126.3162401279671,-571.4613646694634
68,-123.53754546493487,-580.043500795844
69,-120.79019704101985,-588.6674349219684
70,-118.07066030131286,-597.325893431509
71,-115.38424936135642,-606.0827081572643
72,-112.71882217002617,-614.6903172796156
73,-110.08320461619134,-623.3647259624049
74,-107.47784044281231,-632.1384697873873
75,-104.90191828442177,-640.9275237400943
76,-102.35886123742212,-649.6151065850936
77,-99.84143184631445,-658.4171094153717
78,-97.35789499080353,-667.1801383932179
79,-94.90220721372982,-675.9982085650336
80,-92.47298745509495,-684.816386429753
81,-90.07605825716514,-693.6584295829816
82,-87.70157654364404,-702.4996943407314
83,-85.3620131887376,-711.6660397864252
84,-83.04800696651212,-720.7741214473426
85,-80.76667572261478,-729.7755102229785
86,-78.51275567093894,-738.8396148731554
87,-76.28696751586013,-747.8596342009696
88,-74.09202962867842,-756.8522922800403
89,-71.92889772621204,-765.9597520280295
90,-69.79985413927433,-774.7543426655684
91,-67.69930748863125,-783.6367335447794
92,-65.62463244276974,-792.7404670389733
93,-63.582851854414756,-802.0577302144375
94,-61.56467703649089,-811.2371755027125
95,-59.58425744208911,-820.4169130173395
96,-57.634880209646,-829.4432595444596
97,-55.71693481933086,-838.3204656449234
98,-53.821524506250185,-847.6195111505367
99,-51.958794831907724,-856.7986043014535
100,-50.12892418294469,-866.106984047452
101,-48.32517794833974,-875.4506719771016
102,-46.55431335500636,-884.6390176031637
103,-44.81092195618733,-894.4867362101577
104,-43.112278580564706,-904.3459698414736
105,-41.43201038688734,-913.72780809697
106,-39.78820261048902,-923.188856453984
107,-38.17615661366746,-932.5556809957052
108,-36.59476976166225,-941.8656382825211
109,-35.04375956732851,-951.2382459094515
110,-33.521407681923066,-960.4963063994874
111,-32.04345812457173,-970.0211398413594
112,-30.587086837880417,-979.6700402125643
113,-29.163389052794297,-989.3806372238541
114,-27.776966082305204,-999.1062972524014
115,-26.42625388250327,-1008.754864893599
116,-25.107095667447663,-1018.5166638549344
117,-23.820310964774205,-1028.131107680245
118,-22.57424590920233,-1037.6022187252165
119,-21.362466814897356,-1047.1290873181788
120,-20.175237691316692,-1056.7972385191824
121,-19.030436481462356,-1066.4410470624134
122,-17.91792662019817,-1076.2964698451833
123,-16.841525609743154,-1085.9226010626007
124,-15.803756063775506,-1095.9458051287656
125,-14.810662773248975,-1105.5946604311903
126,-13.843009355823494,-1115.4836250552253
127,-12.904071799991481,-1125.3463459896375
128,-12.011736941286198,-1135.125340009079
129,-11.158544206169903,-1144.9534084925908
130,-10.348575680328349,-1155.231277359875
131,-9.572839839729976,-1165.0905449808124
132,-8.822786884209687,-1175.1638626488784
133,-8.12095336295847,-1185.213435285812
134,-7.453576432144144,-1194.7469427281612
135,-6.840708292434681,-1204.6286040938212
136,-6.252252851546541,-1214.632692245461
137,-5.705864351347214,-1225.001363180134
138,-5.2109820201101344,-1235.588667942102
139,-4.739186747715121,-1245.876733594443
140,-4.315479101436222,-1256.1356789632264
141,-3.9368414769503035,-1266.1773812789543
142,-3.594048614656299,-1276.330840795301
143,-3.300769915934848,-1286.3446028710896
144,-3.047805106119438,-1296.7622536196504
145,-2.8442743967227786,-1307.020296555631
146,-2.6766885748770166,-1317.0608050881056
147,-2.5503744381390563,-1327.1770503529697
148,-2.479437023240462,-1337.0005074575747
149,-2.444661659461258,-1346.8212113548943
150,-2.4689545864710682,-1356.665044057183
151,-2.5278406012871644,-1366.872240347191
152,-2.6297373437053695,-1376.944466365545
153,-2.7967329280824744,-1386.2490982331074
154,-3.0306992023503314,-1395.2295557865727
155,-3.29654434200462,-1405.8360451701083
156,-3.6199069724399466,-1415.636441896415
157,-3.9951498283082403,-1425.4656113810852
158,-4.409252688763854,-1435.9322169210354
159,-4.864365386449276,-1446.542234077555
160,-5.362187952127056,-1456.625974959301
161,-5.929262869127354,-1466.2202597456999
162,-6.559004567749253,-1475.9708637204167
163,-7.228902525403623,-1486.2357494826647
164,-7.959731174824765,-1496.6735777285285
165,-8.74957969140986,-1506.651746721458
166,-9.609941106036455,-1515.6169682901527
167,-10.514619348873918,-1525.8447153009038
168,-11.470816169119711,-1535.9119955123824
169,-12.482884729622594,-1545.0597899905842
170,-13.558856725094085,-1554.916387801757
171,-14.709189343604077,-1564.910988094147
172,-15.904210419063997,-1574.4681133598497
173,-17.1956206016638,-1584.1514383672911
174,-18.539326084608728,-1593.2781774023679
175,-19.9660810418688,-1602.9862938189617
176,-21.45047187505737,-1611.7610173296416
177,-22.986940195151714,-1621.661459077608
178,-24.594341343944517,-1631.944837111907
179,-26.271371707823743,-1641.2767111270805
180,-28.024067604526135,-1650.2066959481963
181,-29.861114651670174,-1660.5753679412592
182,-31.72203975415705,-1669.1265381690973
183,-33.70434046727458,-1677.3236624313795
184,-35.77508663671473,-1686.370464709733
185,-37.886789602993375,-1695.7635406826957
186,-40.08404182089886,-1704.1065040531103
187,-42.39117934467471,-1712.3780794903578
188,-44.75134275095151,-1721.4767035645273
189,-47.20132009289826,-1731.1565882797877
190,-49.72378004338579,-1740.0898735048468
191,-52.31807341753485,-1749.1289762324159
192,-54.979582377545015,-1757.456619466946
193,-57.750428011045656,-1765.481160484036
194,-60.599306574567166,-1773.1824709409557
195,-63.50623710010264,-1781.4087181388313
196,-66.5410299816336,-1790.9720349584168
197,-69.65388385276619,-1799.5419771268935
198,-72.8770040572311,-1808.025297240798
199,-76.14517040895568,-1814.7092798024241
200,-79.58261277676219,-1823.0571377687593
201,-83.10905521673995,-1830.9608104981671
202,-86.71572422529404,-1837.6533055747132
203,-90.36960517516697,-1845.9074660439
204,-94.11667253532995,-1854.00497448822
205,-98.01968208734458,-1861.911180269526
206,-102.02275264035627,-1866.7586406990376
207,-106.19069152311364,-1874.0035692346719
208,-110.40667341861918,-1879.8208789220807
209,-114.78301168271618,-1886.9972448351837
210,-119.16547892835065,-1892.2465924244898
211,-123.68732970672956,-1899.5537451477794
212,-128.4034948183487,-1905.6714095563948
213,-133.24761747181606,-1911.3244764787814
214,-138.13313576554776,-1917.9767604568187
215,-143.1868054477864,-1922.8099503382618
216,-148.31118610079136,-1926.5812296445729
217,-153.60490517522854,-1933.5170366497478
218,-159.0097780240615,-1938.3190355405677
219,-164.46235488849013,-1945.7945478459442
220,-169.9994628691818,-1952.6874354422398
221,-175.6855358885626,-1957.6486742873167
222,-181.59363139524416,-1963.2059381622603
223,-187.6458831534701,-1966.1843731937915
224,-193.7498580845982,-1969.0298570952436
225,-199.9811523990248,-1974.5019654905773
226,-206.27528535218457,-1976.227903832856
227,-212.931826629892,-1982.457938941472
228,-219.79063434667998,-1984.8203429550267
229,-226.6494081702591,-1985.5002044487264
230,-233.6674298232484,-1990.8266766574088
231,-240.78810108021793,-1999.3200645406614
232,-248.06407074027308,-1997.9882887927815
233,-255.3596659539724,-2004.9669250032457
234,-262.75380862479415,-2007.7628131409
235,-270.2603849722478,-2016.4335371352063
236,-278.0196818027825,-2015.1608122269827
237,-285.88569446965886,-2014.238475017024
238,-293.9430202557418,-2015.5170773476057
239,-302.251554155869,-2017.4534453398082
240,-310.734701865245,-2020.1194178034275
241,-319.03348182811277,-2025.0733138475625
242,-327.8020091203229,-2025.4367763272458
243,-336.8487906410174,-2026.4673702601212
244,-346.12137697227485,-2023.9292512152606
