N,lnPi(N),U(N)
0,-255.93208075722092,0.0
1,-249.48786641396822,-19.626873033790616
2,-243.7580466102107,-39.17718610254087
3,-238.45468296688486,-58.57066760536691
4,-233.44419521568332,-78.03925119314226
5,-228.67705273955656,-97.33040971992887
6,-224.10808691465445,-116.59845664374734
7,-219.70329912219964,-135.826190582462
8,-215.4554014717297,-154.95025776327384
9,-211.33133966972508,-173.9686070848038
10,-207.3360406511299,-192.83994190533122
11,-203.44735090696489,-211.6527182412101
12,-199.65387306266138,-230.4816693483881
13,-195.94815105864635,-249.19234716254869
14,-192.3347440311547,-267.7180059887032
15,-188.79337448972754,-286.2886555474106
16,-185.3299740632566,-304.6905377597359
17,-181.9401599289328,-323.03286864799156
18,-178.61312022394256,-341.2423669603377
19,-175.3570210775654,-359.6487298330103
20,-172.1562556590986,-378.1826577991378
21,-169.02083580563578,-396.506287846707
22,-165.93903572928318,-414.5848872035567
23,-162.90834935095685,-432.6893591950138
24,-159.927481295149,-450.75292477228504
25,-156.99241910354885,-468.70479254156817
26,-154.11390414344598,-486.78584727380803
27,-151.27280618811517,-504.8606999722615
28,-148.4770317622554,-522.8540501448879
29,-145.72375570984624,-540.8330805278893
30,-143.00207992227817,-558.7171142307925
31,-140.3292295772596,-576.589977904543
32,-137.692565170457,-594.2470676838129
33,-135.09488814729144,-612.1064577087673
34,-132.5361370586949,-630.0996730080878
35,-130.00903103025087,-648.0268214241805
36,-127.51827816500273,-666.0995277773764
37,-125.06230321774328,-683.963327383186
38,-122.64424824907746,-701.9842769920724
39,-120.24637502683231,-720.0191096076232
40,-117.88822590078613,-738.2869211290817
41,-115.55852872031008,-756.2911593582467
42,-113.26484423461551,-774.4074005922957
43,-110.99272962497756,-792.6019196708658
44,-108.7503255740348,-810.4576655906931
45,-106.53598430261198,-828.3777730062866
46,-104.3518813613037,-846.5223813612974
47,-102.19424227874492,-864.6658671308251
48,-100.06730930063367,-882.912083671843
49,-97.95985730785836,-901.0666166906376
50,-95.87444705269462,-919.5047042699443
51,-93.81105827949057,-938.0535519484329
52,-91.77557999378425,-956.3265536087492
53,-89.76199729421526,-974.770085368873
54,-87.78170641858543,-993.2902905902738
55,-85.81700491868767,-1011.7076579759596
56,-83.88145368491325,-1030.2205636597137
57,-81.9631698859441,-1048.7115321111996
58,-80.07089199543208,-1067.206114312059
59,-78.2001777721193,-1085.4844907635706
60,-76.35046526958186,-1104.792823778058
61,-74.52458580381904,-1123.824128215594
62,-72.72161590212048,-1142.318259948166
63,-70.94416900614362,-1160.9377480662224
64,-69.18043611937898,-1179.7700437800304
65,-67.44382562725534,-1198.7976523318648
66,-65.72773690040617,-1217.910886776277
67,-64.03242283780489,-1236.7918831041316
68,-62.35567520408383,-1256.373091635949
69,-60.701515096915976,-1275.4928060483799
70,-59.071775016661825,-1294.6428863680776
71,-57.46210556562209,-1313.7136572103263
72,-55.87494725972183,-1332.9316320317157
73,-54.31053717490163,-1352.4447685691048
74,-52.75537032559111,-1371.7444213816489
75,-51.22874765105032,-1391.2366108312344
76,-49.72613940536095,-1410.9660891295644
77,-48.2424016734653,-1430.7415109717476
78,-46.77880639326374,-1450.394516460714
79,-45.33836667478371,-1469.8262558815259
80,-43.91173916942059,-1489.768664723575
81,-42.50776849500689,-1509.5858695895877
82,-41.128213251668505,-1529.3188935081052
83,-39.76670299115306,-1549.2227552594195
84,-38.43510556648993,-1569.4955879496556
85,-37.11291847883941,-1589.791818086058
86,-35.81814679303047,-1610.2765022716048
87,-34.55070873175935,-1630.394712578105
88,-33.30495536536602,-1651.1651061458542
89,-32.07042135979611,-1671.853885188888
90,-30.858419938811885,-1692.4789513467767
91,-29.669807806649736,-1713.3873480127731
92,-28.506062729412996,-1734.6335665742881
93,-27.359829683198676,-1755.2015743990414
94,-26.22459348994527,-1776.5570180529612
95,-25.112730362237947,-1797.7062459317822
96,-24.034558693038115,-1818.7561412966388
97,-22.97775131818235,-1839.7854900472303
98,-21.94227702535536,-1861.2449493567765
99,-20.93426942166996,-1882.6076855076244
100,-19.946872322462063,-1904.3085599784608
101,-18.98050887651666,-1926.1449461214506
102,-18.039992850782106,-1948.3192024393866
103,-17.118902549177214,-1970.3180050937808
104,-16.22379767363045,-1992.2882361606898
105,-15.354982420902068,-2014.132831697767
106,-14.511614462873943,-2036.0778717016365
107,-13.688402148221904,-2058.3309600704742
108,-12.892231142875879,-2079.890504303905
109,-12.12626505226455,-2101.84514982174
110,-11.387344790696709,-2124.255849331261
111,-10.673237954097168,-2146.8504664630236
112,-9.985292266820913,-2169.5896270625017
113,-9.32410186444536,-2192.5213788669716
114,-8.692805623472445,-2215.750338339072
115,-8.08555837283847,-2239.524827698413
116,-7.505539512871415,-2262.897989586163
117,-6.9574998081707164,-2286.218481604643
118,-6.436429466999407,-2309.7657923906518
119,-5.94393375611849,-2333.295858806974
120,-5.483118092633639,-2356.5019914168297
121,-5.056173075268468,-2379.7377152713016
122,-4.658970066795483,-2403.3775592552265
123,-4.296020176555821,-2426.7257281318743
124,-3.9665292604622597,-2450.5811952041768
125,-3.6667066353441773,-2474.5416120966474
126,-3.4006114691828704,-2498.7995035776403
127,-3.1678337815513022,-2523.0860710545167
128,-2.9743900285035285,-2547.2854977016686
129,-2.8155747557317388,-2571.8078092406795
130,-2.689819675439303,-2596.354255418475
131,-2.5998418024317904,-2620.635938720203
132,-2.550023706160737,-2645.422208574186
133,-2.5401888752581034,-2669.9728953627127
134,-2.56934683764262,-2694.9011290438066
135,-2.6373087667123163,-2720.0396481564458
136,-2.747743428097515,-2745.2915192804576
137,-2.9002437075765717,-2770.7613320319288
138,-3.096400177975902,-2796.069430238669
139,-3.3252490625594295,-2821.2848620690056
140,-3.6073278897338743,-2846.7454916762144
141,-3.9289990185315777,-2872.4122845529782
142,-4.3075122106618196,-2898.5553444851976
143,-4.734288609689564,-2925.2533822807745
144,-5.203738836891169,-2951.64639312098
145,-5.7255247579202475,-2977.5141240739104
146,-6.297111545717534,-3003.4541943392105
147,-6.914050201269525,-3030.4955811075997
148,-7.576764624662665,-3057.0269094234536
149,-8.304832456415362,-3083.1786285179114
150,-9.075646307570985,-3109.949712720285
151,-9.918543467988222,-3136.2369359604636
152,-10.806983831607901,-3162.5976129209957
153,-11.759916183014148,-3188.884097717484
154,-12.771604954473325,-3216.1761727240737
155,-13.83035227695057,-3243.4388054533483
156,-14.961748405305904,-3271.016581722768
157,-16.150658248514183,-3297.5340747811497
158,-17.41753652127627,-3324.63064008503
159,-18.751221014511678,-3352.013518119362
160,-20.142196379842623,-3378.6799912711067
161,-21.593668013894465,-3405.938516385875
162,-23.1111688268223,-3433.703705142223
163,-24.716085309107534,-3460.6554423105918
164,-26.40500284073132,-3487.439185905103
165,-28.188427785623098,-3515.562762005982
166,-30.025201659878938,-3543.838854297792
167,-31.955624695235365,-3571.6100818874984
168,-33.95297548584764,-3599.6651845177257
169,-36.02090277265196,-3628.6109506531066
170,-38.16530737747129,-3656.364050547025
171,-40.40083944170407,-3684.1746108925145
172,-42.73403869739726,-3710.899720021982
173,-45.14575487776877,-3736.045136307177
174,-47.6549328741411,-3763.6838461965526
175,-50.23578597370183,-3791.846258491496
176,-52.93137837040958,-3819.56099334341
177,-55.704326901616064,-3850.1937867472952
178,-58.60589765306346,-3882.126687514443
179,-61.5642079516578,-3910.9745288578342
180,-64.66050687728125,-3936.9126269759654
181,-67.90525393168781,-3964.792409425754
182,-71.24322060992023,-3992.39273042103
183,-74.68264523302307,-4023.0680781922056
184,-78.24468593601475,-4052.0502987908694
185,-81.84519408391733,-4079.105875553156
186,-85.60334093849886,-4106.849727588262
187,-89.48185829478894,-4133.2078410529575
188,-93.46213271212858,-4159.149504403984
189,-97.63139326089143,-4184.346755458908
190,-101.94329118547793,-4208.748998651841
191,-106.37396351262325,-4239.136171304512
192,-110.87111303678574,-4271.905662912439
193,-115.53471861005292,-4298.34567464859
194,-120.42663335655197,-4320.6729364492785
195,-125.42614311119766,-4343.68551174528
196,-130.59591134502435,-4374.107699859043
197,-135.82153893839032,-4401.303320595711
198,-141.2141945521195,-4426.1145487978865
199,-146.70991130136545,-4456.050184198364
200,-152.27178874221187,-4480.6182730579385
201,-158.07090866616545,-4497.937175173269
202,-164.18133022794424,-4519.602359171979
203,-170.32859464203557,-4551.097757439624
204,-176.81100754440044,-4569.505880770586
205,-183.29768108879202,-4601.5592047006285
206,-189.94589189897698,-4622.4559220323135
207,-196.74884346391946,-4644.407874680408
208,-203.69783338091818,-4669.3128201577565
209,-211.14001003306905,-4690.773167185878
