N,lnPi(N),U(N)
0,-245.40978390395497,0.0
1,-239.87599309002155,-11.623777981862077
2,-235.02279044340432,-23.287497936686123
3,-230.56680832205058,-34.97897465955248
4,-226.40228450646416,-46.60866335915125
5,-222.4609492318001,-58.29417787136481
6,-218.69776249525776,-69.99781257479844
7,-215.0830054482381,-81.71021597912113
8,-211.60370408612033,-93.43813445072374
9,-208.2299970848349,-105.22346167316209
10,-204.95970999434883,-116.98163243664749
11,-201.77840851023402,-128.76864204211597
12,-198.68005287559498,-140.68427848865394
13,-195.6615122717928,-152.5700680197151
14,-192.7153243418651,-164.464800205933
15,-189.82997841183087,-176.37690998423932
16,-187.0044632108585,-188.27583029227753
17,-184.23794565458755,-200.33230006918166
18,-181.52244620922409,-212.31765600915242
19,-178.85788518023776,-224.3947422017518
20,-176.2413151966635,-236.47008197044852
21,-173.66971148798814,-248.53484023315832
22,-171.13729212976378,-260.50959321034316
23,-168.64992544568133,-272.75562352505585
24,-166.19795283828432,-284.99989520771487
25,-163.78339686827408,-297.25434406896966
26,-161.40317340954147,-309.56882984319964
27,-159.056264045506,-321.8631042000925
28,-156.74397248174768,-334.2284128281135
29,-154.46472819546122,-346.6863615786315
30,-152.21768008950494,-359.06455368409297
31,-149.99499383402417,-371.450423891074
32,-147.8084433397417,-383.95955495157614
33,-145.6460154945591,-396.5419646284681
34,-143.50774224059646,-409.27527261852083
35,-141.39169002120389,-421.8909826885392
36,-139.2953784001603,-434.83038149309505
37,-137.22445690109828,-447.7264686452472
38,-135.1805911581925,-460.55602326853113
39,-133.16334804499064,-473.3582736018325
40,-131.1616994323373,-486.3091506898345
41,-129.18111035886753,-499.191133483906
42,-127.22231536004567,-512.1741304350471
43,-125.28333691219952,-525.2014846796519
44,-123.3681450733127,-538.209675860744
45,-121.47154080132279,-551.2514835528928
46,-119.59352828695397,-564.4373790311292
47,-117.7267917088131,-577.6936692109193
48,-115.8811515324279,-590.9440692617791
49,-114.05047262933913,-604.2617780373621
50,-112.23375119693502,-617.6901313705566
51,-110.4418841753306,-631.2063299051079
52,-108.66011533943454,-644.6228968288815
53,-106.89505305912051,-658.2237940701852
54,-105.15125283585867,-671.7855888977028
55,-103.41963188237891,-685.5984875770409
56,-101.70617376965235,-699.4526924713173
57,-99.99786079641727,-713.4486324006211
58,-98.30779622012729,-727.5023542771305
59,-96.63027121359089,-741.480346088716
60,-94.9686025549939,-755.3615255028017
61,-93.32297290835298,-769.3905690587308
62,-91.69249822766055,-783.4942335992055
63,-90.0748497981058,-797.6540429310262
64,-88.47324631123693,-811.8868392302538
65,-86.88145104750343,-826.1076170315573
66,-85.30186291564881,-840.4497261597826
67,-83.73731479882291,-854.3679965993579
68,-82.19054540151872,-868.7213457894177
69,-80.65260054779664,-883.381452577345
70,-79.12200660561429,-897.9950968415542
71,-77.61102378988319,-912.650446840893
72,-76.103790895536,-927.5594762141991
73,-74.61934927608097,-942.360993469687
74,-73.1440106156973,-957.335244419668
75,-71.68533905313349,-972.1372842276942
76,-70.23733168396511,-987.4111132905455
77,-68.80248572053169,-1002.6687691542866
78,-67.37699841734987,-1017.9376931487859
79,-65.96391424987367,-1033.4776274494761
80,-64.56305522916516,-1048.8564843120548
81,-63.173237580085,-1064.320010589665
82,-61.78630632794132,-1079.9314843665888
83,-60.408957330227125,-1095.7684939900537
84,-59.04652794432097,-1111.4197894239733
85,-57.694240036628756,-1126.9486681942835
86,-56.35276178584171,-1142.7806232628827
87,-55.028205784172755,-1158.672118852366
88,-53.71315481639708,-1174.6989553786043
89,-52.4126232169957,-1190.5133271566083
90,-51.125323297020444,-1206.6172851853007
91,-49.85410920667822,-1222.9952478270425
92,-48.58785146472498,-1239.6314375032234
93,-47.33603040018188,-1256.0887976138292
94,-46.094337544293026,-1272.6108722149256
95,-44.86601873482668,-1289.1272511229472
96,-43.648406870262605,-1305.8426963330676
97,-42.447054851439745,-1322.575939266757
98,-41.256695146978515,-1339.45782474093
99,-40.080604512150515,-1356.4228184058084
100,-38.91461185151688,-1373.4056988668453
101,-37.761756027668056,-1390.5781271293017
102,-36.62182798983228,-1407.7587888929484
103,-35.49415499332768,-1425.0559484083205
104,-34.38259308562236,-1442.374118634325
105,-33.281419079611524,-1459.8700114862477
106,-32.19334866088728,-1477.5401161452937
107,-31.12318352500883,-1494.8252185762249
108,-30.063545530628506,-1512.2754361229454
109,-29.018196749752708,-1530.2068766433695
110,-27.991300778584804,-1548.255421934533
111,-26.978834652624517,-1566.3567594653869
112,-25.983895998653043,-1584.6179546089443
113,-25.0028868251615,-1602.9906764034931
114,-24.03473870114941,-1621.6229341179023
115,-23.085982142753398,-1640.5222180607052
116,-22.148980084861325,-1659.2143555807343
117,-21.228878752704578,-1677.9433464677786
118,-20.322807510860617,-1696.7745692925419
119,-19.430827321601118,-1715.7379061252577
120,-18.560889777827573,-1734.90359045878
121,-17.710561377190704,-1753.7217513701544
122,-16.877059578312288,-1772.57943644033
123,-16.061870777424264,-1792.032932387203
124,-15.262402007023912,-1811.4208236147824
125,-14.483785681556459,-1831.0580907599979
126,-13.724134454813157,-1850.709433539556
127,-12.982981370452496,-1870.6096959204988
128,-12.26503866309874,-1890.4676961655678
129,-11.573519938997567,-1910.6340465615976
130,-10.905230504838006,-1930.8812310293324
131,-10.255717128408396,-1951.4712826730465
132,-9.62340115870332,-1972.1402494346912
133,-9.011287233935139,-1992.8528406229816
134,-8.425794833952398,-2013.8739828772887
135,-7.866709214693817,-2035.1356533339713
136,-7.323984524372822,-2056.2826528457335
137,-6.80651063088327,-2077.513555251393
138,-6.321143615834377,-2098.7372076045176
139,-5.8530524497782785,-2120.1659239739092
140,-5.415274731594867,-2141.8033212907794
141,-5.008190104011067,-2162.5785746197
142,-4.633132888329232,-2183.7686743311024
143,-4.287045659837151,-2205.7181695899963
144,-3.9694607526496273,-2227.497450073817
145,-3.6784076006189994,-2249.8835716577487
146,-3.424231495284079,-2272.0189750065365
147,-3.1982098977139404,-2295.2161650547787
148,-2.9974484667294408,-2318.604068897115
149,-2.8350598365010344,-2341.2608317049744
150,-2.7085967462283977,-2364.0480423918707
151,-2.6164082516147746,-2387.298909478064
152,-2.5632732270827208,-2410.406778678622
153,-2.5439412097569973,-2433.014623639665
154,-2.5699327563376246,-2455.645080795952
155,-2.638495382374305,-2479.1795799911633
156,-2.7434180723961563,-2502.9198556196643
157,-2.8904321992167357,-2526.694135913902
158,-3.074719783838947,-2550.613011570884
159,-3.3071738283949403,-2575.3950534582145
160,-3.577099969900121,-2601.1593875369144
161,-3.8951249568275332,-2625.350005449447
162,-4.259124355301868,-2649.662321154079
163,-4.656875273585104,-2674.3768748088623
164,-5.1134820607276374,-2698.5766607867263
165,-5.619900801557936,-2722.271928663209
166,-6.1823149814075755,-2746.0214571956967
167,-6.786017037079166,-2771.4366212229543
168,-7.43642044741269,-2796.92670940483
169,-8.13672479761603,-2821.860451342174
170,-8.91390980692002,-2846.7709424003006
171,-9.737970753608625,-2873.600262306478
172,-10.60696967860638,-2900.1798249554377
173,-11.53749634072533,-2925.485967791021
174,-12.53995669967755,-2950.5040758918803
175,-13.612627921217115,-2976.158489123205
176,-14.74828000555856,-3000.6224164600753
177,-15.950499173633762,-3026.4697370747017
178,-17.21773684101085,-3052.2988305960607
179,-18.54244924059397,-3078.5354834835925
180,-19.951314218381658,-3103.9511997320515
181,-21.42831681401488,-3129.4597377568934
182,-22.97642306770725,-3156.0583132814027
183,-24.542697860751264,-3184.4700558027253
184,-26.22954275927778,-3210.7891404782604
185,-27.978827951541735,-3237.481495166394
186,-29.818062351087452,-3265.376648204372
187,-31.73472044785071,-3292.803062120329
188,-33.7131414131954,-3319.3769426070394
189,-35.78665809300746,-3346.2153384153753
190,-37.97188487840101,-3372.590062238298
191,-40.21533622336055,-3398.830025710624
192,-42.536215536127045,-3425.903808095354
193,-44.91802770003714,-3454.545408929749
194,-47.37818141811523,-3480.9419329986813
195,-49.941853013192556,-3507.986455496226
196,-52.623868637504515,-3534.2356836811414
197,-55.42480392250057,-3558.627308990457
198,-58.32583280138725,-3586.171557663096
199,-61.32543818513234,-3615.4783244050086
200,-64.409923288662,-3641.6422319241065
201,-67.58652844597863,-3671.043111950861
202,-70.85259640235118,-3699.2615843839085
203,-74.21076110153543,-3725.5514943946146
204,-77.72868824646172,-3755.1445050118673
205,-81.29956903319275,-3783.819993051282
206,-84.94044554311814,-3813.9255709735407
207,-88.7070192698916,-3838.3731658132165
208,-92.65353071564881,-3867.4092442517613
209,-96.62488290541243,-3895.0221762152432
210,-100.68607711173426,-3925.0785368524594
211,-104.83795552949037,-3952.0298620545364
212,-109.16759887673352,-3975.6491848582846
213,-113.70239690653266,-4000.888103120724
214,-118.26653197946403,-4034.800356818232
215,-122.96593113014303,-4059.311827504658
216,-127.80838932378752,-4085.542842754374
217,-132.85122097110562,-4112.865639295582
218,-138.17341367746235,-4142.3737852425
219,-143.48900441841877,-4165.524932838296
220,-148.85729396106058,-4193.6592532879295
221,-154.30290641232324,-4218.421087237599
222,-159.73338252306368,-4246.509666110287
223,-165.51375764541098,-4272.895050620231
224,-171.43825418401036,-4293.6275775626455
